D:\MassHunter\GCMS\1\data\2025\Quentin\QD_250515_MONITORING_NO2_24h_3uL_inj.D Fri May 16 15:30:24 2025
Start of data points
6.04282,38213
6.04853,31824
6.05427,29094
6.05998,25397
6.06570,22849
6.07143,21574
6.07715,22524
6.08287,26185
6.08860,52981
6.09432,140099
6.10003,306741
6.10577,467601
6.11148,490312
6.11720,371323
6.12293,211848
6.12865,111036
6.13437,72748
6.14008,59351
6.14582,45157
6.15153,37920
6.15725,31271
6.16298,27099
6.16870,30090
6.17442,30681
6.18015,29682
6.18587,28522
6.19158,31916
6.19732,42592
6.20303,48051
6.20875,49951
6.21448,39815
6.22020,30871
6.22592,28174
6.23165,24572
6.23737,22210
6.24308,19161
6.24882,16004
6.25453,14717
6.26025,15073
6.26598,14386
6.27170,16966
6.27742,16100
6.28315,14629
6.28887,12274
6.29458,12078
6.30032,11427
6.30603,10128
6.31175,11621
6.31747,10070
6.32320,9182
6.32892,9488
6.33463,7899
6.34037,7434
6.34608,6475
6.35180,5661
6.35753,6960
6.36325,6451
6.36897,6305
6.37470,6648
6.38042,6149
6.38613,4897
6.39187,6146
6.39758,7787
6.40330,5857
6.40903,6427
6.41475,7639
6.42047,7424
6.42620,7170
6.43192,7666
6.43763,8240
6.44337,8819
6.44908,6445
6.45480,6558
6.46053,5623
6.46625,6461
6.47197,5003
6.47770,5760
6.48342,6825
6.48913,5758
6.49485,6446
6.50058,5944
6.50630,8119
6.51202,7732
6.51775,11091
6.52347,10902
6.52918,9828
6.53492,8113
6.54063,6356
6.54635,6392
6.55208,6330
6.55780,7471
6.56352,8794
6.56925,7658
6.57497,8729
6.58068,9187
6.58642,9482
6.59213,10458
6.59785,10875
6.60358,9372
6.60930,9103
6.61502,9280
6.62075,8679
6.62647,8464
6.63218,8777
6.63792,8348
6.64363,8620
6.64935,7902
6.65508,8122
6.66080,8280
6.66652,7589
6.67223,7561
6.67797,6432
6.68368,8079
6.68940,9106
6.69513,11780
6.70085,20215
6.70657,30051
6.71230,36143
6.71802,32740
6.72373,22494
6.72947,14705
6.73518,11730
6.74090,9384
6.74663,9331
6.75235,9102
6.75807,12806
6.76380,11946
6.76952,12266
6.77523,10831
6.78097,9409
6.78668,11558
6.79240,12795
6.79813,10335
6.80385,11109
6.80957,10839
6.81530,10101
6.82102,11194
6.82673,10260
6.83247,10291
6.83818,11229
6.84390,9902
6.84963,9272
6.85535,6995
6.86107,6276
6.86678,6652
6.87252,5674
6.87823,4647
6.88395,4563
6.88968,5777
6.89540,5936
6.90112,5789
6.90685,5256
6.91257,5826
6.91828,4965
6.92402,4294
6.92973,4022
6.93545,4865
6.94118,4683
6.94690,5135
6.95262,4921
6.95835,7355
6.96407,8548
6.96978,9560
6.97552,9134
6.98123,7254
6.98695,6397
6.99268,6402
6.99840,4566
7.00412,5418
7.00985,4797
7.01557,4747
7.02128,4184
7.02702,5773
7.03273,3454
7.03845,2848
7.04417,4125
7.04990,3551
7.05562,3724
7.06133,4773
7.06707,4308
7.07278,4213
7.07850,4641
7.08423,4289
7.08995,5316
7.09567,3442
7.10140,3139
7.10712,2861
7.11283,3280
7.11857,3778
7.12428,4179
7.13000,3797
7.13573,3062
7.14145,2830
7.14717,3045
7.15290,3430
7.15862,2573
7.16433,2165
7.17007,2800
7.17578,2031
7.18150,2447
7.18723,3211
7.19295,3195
7.19867,3806
7.20440,3827
7.21012,3736
7.21583,5815
7.22155,5191
7.22728,5172
7.23300,4216
7.23872,3677
7.24445,3294
7.25017,3140
7.25588,3200
7.26162,3214
7.26733,4030
7.27305,5583
7.27878,7101
7.28450,6783
7.29022,4862
7.29595,4045
7.30167,3117
7.30738,3159
7.31312,3445
7.31883,3274
7.32455,5663
7.33028,5023
7.33600,4641
7.34172,4035
7.34745,3025
7.35317,4355
7.35888,2325
7.36462,3208
7.37033,3104
7.37605,3027
7.38178,2783
7.38750,3103
7.39322,2512
7.39893,3318
7.40467,2694
7.41038,3287
7.41610,2645
7.42183,2056
7.42755,2486
7.43327,2331
7.43900,2243
7.44472,2362
7.45043,1669
7.45617,3534
7.46188,4443
7.46760,9313
7.47333,26732
7.47905,56535
7.48477,101940
7.49050,131083
7.49622,129128
7.50193,97074
7.50767,54472
7.51338,25841
7.51910,14158
7.52483,12056
7.53055,10400
7.53627,11029
7.54200,11312
7.54772,10699
7.55343,7556
7.55917,7974
7.56488,5288
7.57060,5705
7.57633,4409
7.58205,3607
7.58777,3543
7.59348,3329
7.59922,3178
7.60493,3235
7.61065,3075
7.61638,3293
7.62210,4120
7.62782,3401
7.63355,3380
7.63927,2494
7.64498,2594
7.65072,3760
7.65643,3359
7.66215,3437
7.66788,3453
7.67360,2781
7.67932,2995
7.68505,2836
7.69077,3795
7.69648,3943
7.70222,3572
7.70793,4000
7.71365,4055
7.71938,2600
7.72510,3141
7.73082,3375
7.73655,2554
7.74227,2961
7.74798,3289
7.75370,3697
7.75943,3938
7.76515,3835
7.77087,2460
7.77660,2786
7.78232,3322
7.78803,3804
7.79377,3463
7.79948,1985
7.80520,3356
7.81093,2504
7.81665,2451
7.82237,2354
7.82810,2179
7.83382,2108
7.83953,2341
7.84527,2653
7.85098,2168
7.85670,2497
7.86243,2505
7.86815,1945
7.87387,2473
7.87960,2169
7.88532,2344
7.89103,2053
7.89677,1588
7.90248,2361
7.90820,2781
7.91393,1898
7.91965,2143
7.92537,2282
7.93110,2258
7.93682,2713
7.94253,1841
7.94825,3630
7.95398,3073
7.95970,3160
7.96542,2728
7.97115,2960
7.97687,2996
7.98258,2029
7.98832,2199
7.99403,2297
7.99975,2734
8.00548,2476
8.01120,2162
8.01692,2944
8.02265,3115
8.02837,2520
8.03408,3347
8.03982,3216
8.04553,2368
8.05125,2324
8.05698,3261
8.06270,2717
8.06842,2581
8.07415,2770
8.07987,3852
8.08558,3155
8.09132,2864
8.09703,3407
8.10275,3215
8.10848,2873
8.11420,3123
8.11992,2679
8.12563,2808
8.13137,3298
8.13708,3726
8.14280,4138
8.14853,4327
8.15425,8237
8.15997,10357
8.16570,14981
8.17142,18862
8.17713,19557
8.18287,16082
8.18858,14869
8.19430,9952
8.20003,7933
8.20575,6370
8.21147,3836
8.21720,3258
8.22292,3074
8.22863,2077
8.23437,2940
8.24008,2677
8.24580,2269
8.25153,2602
8.25725,2763
8.26297,2229
8.26870,1740
8.27442,2822
8.28013,2508
8.28587,3442
8.29158,2702
8.29730,2606
8.30302,2286
8.30875,2147
8.31447,2529
8.32018,1586
8.32592,2636
8.33163,2054
8.33735,1904
8.34308,2639
8.34880,2255
8.35452,3291
8.36025,1944
8.36597,4165
8.37168,3819
8.37742,3376
8.38313,3507
8.38885,3374
8.39458,2969
8.40030,4028
8.40602,2193
8.41175,2094
8.41747,2500
8.42318,2485
8.42892,2347
8.43463,2137
8.44035,3052
8.44608,3927
8.45180,3476
8.45752,2975
8.46325,2951
8.46897,2679
8.47468,2082
8.48040,3176
8.48613,2352
8.49185,1900
8.49757,3042
8.50330,2183
8.50902,2430
8.51473,2771
8.52047,2163
8.52618,3214
8.53190,3009
8.53763,2208
8.54335,2573
8.54907,2629
8.55480,3391
8.56052,2906
8.56623,4022
8.57197,4445
8.57768,2433
8.58340,2711
8.58913,3684
8.59485,2553
8.60057,2224
8.60630,2332
8.61202,2650
8.61773,1799
8.62347,2215
8.62918,2457
8.63490,2917
8.64063,2980
8.64635,3495
8.65207,2645
8.65780,2921
8.66352,2540
8.66923,2804
8.67495,2393
8.68068,1723
8.68640,2287
8.69212,2079
8.69785,2254
8.70357,1514
8.70928,2330
8.71502,2478
8.72073,2408
8.72645,2128
8.73218,2528
8.73790,2019
8.74362,2231
8.74935,2902
8.75507,6230
8.76078,8612
8.76652,11737
8.77223,13850
8.77795,10166
8.78368,9253
8.78940,7246
8.79512,4663
8.80085,3663
8.80657,3673
8.81228,3322
8.81802,3558
8.82373,4272
8.82945,3394
8.83518,4782
8.84090,3980
8.84662,3332
8.85233,1916
8.85807,1646
8.86378,2775
8.86950,1988
8.87523,2185
8.88095,1974
8.88667,3208
8.89240,4654
8.89812,5699
8.90383,6294
8.90957,5410
8.91528,3979
8.92100,2686
8.92673,2783
8.93245,2384
8.93817,2362
8.94390,1633
8.94962,2140
8.95533,2094
8.96107,2250
8.96678,2547
8.97250,2301
8.97823,2245
8.98395,1748
8.98967,2177
8.99540,2661
9.00112,2048
9.00683,2270
9.01257,2183
9.01828,2590
9.02400,2548
9.02972,2736
9.03545,3468
9.04117,2316
9.04688,2376
9.05262,2130
9.05833,1961
9.06405,1968
9.06978,2228
9.07550,1810
9.08122,1769
9.08695,2809
9.09267,3032
9.09838,2715
9.10412,2199
9.10983,1644
9.11555,1815
9.12128,2287
9.12700,2012
9.13272,2589
9.13845,3636
9.14417,3945
9.14988,4567
9.15562,6796
9.16133,5718
9.16705,6197
9.17278,6211
9.17850,4141
9.18422,3165
9.18995,3352
9.19567,2245
9.20138,2552
9.20710,2359
9.21283,2349
9.21855,2527
9.22427,1670
9.23000,1962
9.23572,2348
9.24143,1968
9.24717,2776
9.25288,3208
9.25860,4538
9.26433,6295
9.27005,7734
9.27577,7671
9.28150,7146
9.28722,5216
9.29293,3412
9.29867,3459
9.30438,2784
9.31010,2494
9.31583,3652
9.32155,2797
9.32727,2407
9.33300,4028
9.33872,3593
9.34443,3400
9.35017,4173
9.35588,3058
9.36160,3411
9.36733,3304
9.37305,2829
9.37877,2656
9.38450,3628
9.39022,2961
9.39593,2214
9.40165,2305
9.40738,2017
9.41310,2598
9.41882,2827
9.42455,2155
9.43027,2512
9.43598,3534
9.44172,2868
9.44743,2067
9.45315,2973
9.45888,1779
9.46460,2392
9.47032,1859
9.47605,3091
9.48177,2583
9.48748,1734
9.49322,2756
9.49893,2003
9.50465,2597
9.51038,3122
9.51610,1997
9.52182,2836
9.52755,2469
9.53327,2138
9.53898,2455
9.54472,2317
9.55043,2770
9.55615,1876
9.56187,2329
9.56760,2070
9.57332,1727
9.57903,2343
9.58477,2624
9.59048,2651
9.59620,3111
9.60193,2847
9.60765,2751
9.61337,2162
9.61910,2519
9.62482,2386
9.63053,1960
9.63627,2595
9.64198,2544
9.64770,2221
9.65343,2470
9.65915,2787
9.66487,2288
9.67060,1939
9.67632,1658
9.68203,2001
9.68777,1792
9.69348,1599
9.69920,2803
9.70493,1951
9.71065,2998
9.71637,2343
9.72210,2195
9.72782,2015
9.73353,1876
9.73927,1780
9.74498,2345
9.75070,2131
9.75642,2545
9.76215,2445
9.76787,2284
9.77358,1650
9.77932,1663
9.78503,2905
9.79075,1611
9.79648,1999
9.80220,2317
9.80792,2270
9.81365,1955
9.81937,2458
9.82508,1709
9.83082,2374
9.83653,1748
9.84225,2114
9.84798,1236
9.85370,2082
9.85942,2776
9.86515,2642
9.87087,1614
9.87658,1467
9.88232,1959
9.88803,1849
9.89375,1602
9.89948,2445
9.90520,2959
9.91092,4532
9.91665,11915
9.92237,23891
9.92808,56851
9.93380,117434
9.93953,196383
9.94525,258409
9.95097,257809
9.95670,192015
9.96242,112255
9.96813,46269
9.97387,17436
9.97958,6562
9.98530,3349
9.99103,2881
9.99675,2779
10.00247,2554
10.00820,1703
10.01392,1652
10.01963,1633
10.02537,2299
10.03108,2544
10.03680,1899
10.04253,2980
10.04825,2624
10.05397,2639
10.05970,1953
10.06542,2645
10.07113,2473
10.07687,2853
10.08258,3317
10.08830,2768
10.09403,2768
10.09975,2722
10.10547,2435
10.11118,2472
10.11692,2883
10.12263,3180
10.12835,2124
10.13408,1917
10.13980,2553
10.14552,2853
10.15125,3023
10.15697,2912
10.16268,2833
10.16842,2347
10.17413,2458
10.17985,2576
10.18558,2932
10.19130,2761
10.19702,2732
10.20275,3127
10.20847,3489
10.21418,2915
10.21992,3845
10.22563,3262
10.23135,3539
10.23708,3017
10.24280,3018
10.24852,2239
10.25425,2061
10.25997,2108
10.26568,2074
10.27142,2374
10.27713,1999
10.28285,2328
10.28857,1794
10.29430,1945
10.30002,2792
10.30573,2283
10.31147,2735
10.31718,2207
10.32290,1748
10.32863,2844
10.33435,2762
10.34007,1963
10.34580,1868
10.35152,1895
10.35723,2056
10.36297,2269
10.36868,1353
10.37440,1801
10.38013,2128
10.38585,1901
10.39157,2405
10.39730,1691
10.40302,1738
10.40873,1936
10.41447,2375
10.42018,2128
10.42590,2875
10.43163,2910
10.43735,3083
10.44307,3386
10.44880,2928
10.45452,4091
10.46023,2900
10.46597,3077
10.47168,3517
10.47740,2952
10.48312,3040
10.48885,2816
10.49457,3696
10.50028,2736
10.50602,2508
10.51173,2100
10.51745,2684
10.52318,2749
10.52890,2427
10.53462,2784
10.54035,2387
10.54607,3286
10.55178,3017
10.55752,3050
10.56323,2178
10.56895,2831
10.57468,1708
10.58040,2417
10.58612,2518
10.59185,2775
10.59757,2842
10.60328,2450
10.60902,2202
10.61473,2810
10.62045,1781
10.62618,2514
10.63190,2365
10.63762,2196
10.64335,2497
10.64907,2050
10.65478,1795
10.66050,2207
10.66623,2199
10.67195,2582
10.67767,1848
10.68340,2611
10.68912,2519
10.69483,2195
10.70057,1985
10.70628,1907
10.71200,2275
10.71773,1920
10.72345,2292
10.72917,1903
10.73490,2283
10.74062,1978
10.74633,2582
10.75207,1639
10.75778,1786
10.76350,1708
10.76923,1756
10.77495,2309
10.78067,2661
10.78640,2151
10.79212,2880
10.79783,2684
10.80357,1502
10.80928,2769
10.81500,2155
10.82073,2656
10.82645,2774
10.83217,2089
10.83788,1914
10.84362,2494
10.84933,2223
10.85505,2115
10.86078,2471
10.86650,2335
10.87222,2015
10.87795,2252
10.88367,1967
10.88938,2410
10.89512,1842
10.90083,1754
10.90655,1875
10.91228,2808
10.91800,3267
10.92372,3675
10.92945,6141
10.93517,3966
10.94088,2954
10.94662,3122
10.95233,2295
10.95805,2066
10.96378,2442
10.96950,2688
10.97522,2668
10.98095,2196
10.98667,2190
10.99238,2273
10.99812,1811
11.00383,2931
11.00955,2924
11.01527,2615
11.02100,2600
11.02672,3109
11.03243,2347
11.03817,1487
11.04388,1941
11.04960,2420
11.05533,2222
11.06105,2312
11.06677,3004
11.07250,2376
11.07822,2654
11.08393,3474
11.08967,2783
11.09538,1944
11.10110,1884
11.10683,2249
11.11255,2768
11.11827,2345
11.12400,1885
11.12972,2536
11.13543,2433
11.14117,2042
11.14688,1954
11.15260,2422
11.15833,3123
11.16405,2090
11.16977,2042
11.17550,2637
11.18122,2144
11.18693,2220
11.19265,2543
11.19838,3175
11.20410,3399
11.20982,3970
11.21555,2129
11.22127,3242
11.22698,3445
11.23272,1846
11.23843,2525
11.24415,2254
11.24988,2449
11.25560,2451
11.26132,2305
11.26705,2878
11.27277,2302
11.27848,2209
11.28422,2349
11.28993,2822
11.29565,1904
11.30138,2499
11.30710,1701
11.31282,2499
11.31855,2640
11.32427,2519
11.32998,2231
11.33572,1942
11.34143,1550
11.34715,1556
11.35288,1894
11.35860,1702
11.36432,1973
11.37003,2151
11.37577,2092
11.38148,2066
11.38720,2245
11.39293,1696
11.39865,1293
11.40437,2671
11.41010,2475
11.41582,2623
11.42153,2486
11.42727,2397
11.43298,2850
11.43870,3239
11.44443,3408
11.45015,4973
11.45587,5056
11.46160,4212
11.46732,3657
11.47303,2784
11.47877,2276
11.48448,1825
11.49020,1663
11.49593,2398
11.50165,1939
11.50737,1620
11.51310,1865
11.51882,1115
11.52453,1857
11.53027,2128
11.53598,1506
11.54170,2023
11.54743,1295
11.55315,1513
11.55887,1652
11.56458,1876
11.57032,1687
11.57603,1701
11.58175,1472
11.58748,2105
11.59320,1806
11.59892,2680
11.60465,1987
11.61037,2272
11.61608,2575
11.62182,2194
11.62753,2124
11.63325,2698
11.63898,2917
11.64470,1616
11.65042,1215
11.65615,2216
11.66187,2116
11.66758,2872
11.67332,2095
11.67903,2694
11.68475,1889
11.69048,2065
11.69620,2163
11.70192,2212
11.70765,1565
11.71337,1309
11.71908,1974
11.72482,2551
11.73053,2000
11.73625,2581
11.74197,2457
11.74770,2157
11.75342,2326
11.75913,1575
11.76487,1780
11.77058,2251
11.77630,2343
11.78203,3195
11.78775,3032
11.79347,4513
11.79920,4751
11.80492,4650
11.81063,3420
11.81637,2933
11.82208,2501
11.82780,1450
11.83353,1201
11.83925,2051
11.84497,2666
11.85070,3028
11.85642,2613
11.86213,1909
11.86787,1979
11.87358,2130
11.87930,2704
11.88503,1882
11.89075,2462
11.89647,2122
11.90220,2202
11.90792,2120
11.91363,1969
11.91935,2681
11.92508,2399
11.93080,1902
11.93652,1581
11.94225,2226
11.94797,1958
11.95368,1566
11.95942,1982
11.96513,2737
11.97085,4662
11.97658,7158
11.98230,6805
11.98802,5892
11.99375,4282
11.99947,3839
12.00518,2446
12.01092,1728
12.01663,1472
12.02235,2098
12.02808,1882
12.03380,1393
12.03952,2485
12.04525,2336
12.05097,1736
12.05668,2788
12.06242,1567
12.06813,1928
12.07385,1680
12.07958,1678
12.08530,2363
12.09102,2475
12.09673,1878
12.10247,1373
12.10818,2421
12.11390,1719
12.11963,2613
12.12535,2877
12.13107,1706
12.13680,1587
12.14252,2409
12.14823,3955
12.15397,8634
12.15968,19592
12.16540,44613
12.17113,81089
12.17685,125028
12.18257,149936
12.18830,127489
12.19402,86341
12.19973,40380
12.20547,13301
12.21118,5998
12.21690,3563
12.22263,2456
12.22835,3081
12.23407,3892
12.23980,3500
12.24552,2160
12.25123,2081
12.25697,2356
12.26268,2140
12.26840,2946
12.27412,2733
12.27985,2422
12.28557,2644
12.29128,3507
12.29702,1794
12.30273,2814
12.30845,1897
12.31418,2233
12.31990,2386
12.32562,2543
12.33135,1954
12.33707,2062
12.34278,2605
12.34852,2976
12.35423,3084
12.35995,2726
12.36568,2742
12.37140,3088
12.37712,3275
12.38285,2710
12.38857,2755
12.39428,1458
12.40002,2390
12.40573,1946
12.41145,2342
12.41718,1699
12.42290,2097
12.42862,2186
12.43435,2204
12.44007,2660
12.44578,2587
12.45152,2486
12.45723,1864
12.46295,1923
12.46867,2899
12.47440,2352
12.48012,2334
12.48583,1825
12.49157,1868
12.49728,2060
12.50300,2416
12.50873,1992
12.51445,2945
12.52017,2098
12.52590,1971
12.53162,1955
12.53733,2598
12.54307,2001
12.54878,1957
12.55450,2977
12.56023,1887
12.56595,2387
12.57167,1981
12.57740,1983
12.58312,2584
12.58883,2739
12.59457,1955
12.60028,2472
12.60600,1468
12.61173,2444
12.61745,3216
12.62317,2217
12.62890,1967
12.63462,2441
12.64033,2493
12.64605,2404
12.65178,2343
12.65750,2973
12.66322,2145
12.66895,2896
12.67467,2172
12.68038,1859
12.68612,2330
12.69183,2939
12.69755,2930
12.70328,5473
12.70900,7624
12.71472,8498
12.72045,6725
12.72617,4123
12.73188,2768
12.73762,2426
12.74333,2316
12.74905,2469
12.75478,2616
12.76050,2633
12.76622,2110
12.77195,2588
12.77767,2347
12.78338,2681
12.78912,2179
12.79483,1962
12.80055,3291
12.80628,2710
12.81200,1326
12.81772,2917
12.82343,3593
12.82917,3892
12.83488,3264
12.84060,3597
12.84633,3197
12.85205,2654
12.85777,1913
12.86350,3137
12.86922,2148
12.87493,1584
12.88067,2166
12.88638,2990
12.89210,2502
12.89783,2676
12.90355,1975
12.90927,2579
12.91500,2018
12.92072,2026
12.92643,2562
12.93217,3493
12.93788,3714
12.94360,5079
12.94933,4201
12.95505,2167
12.96077,4092
12.96650,2238
12.97222,2503
12.97793,1966
12.98367,2900
12.98938,2969
12.99510,2995
13.00082,1625
13.00655,3130
13.01227,1917
13.01798,2047
13.02372,1744
13.02943,2005
13.03515,1603
13.04088,2352
13.04660,2787
13.05232,2705
13.05805,3504
13.06377,3485
13.06948,3355
13.07522,3141
13.08093,3432
13.08665,3839
13.09238,4020
13.09810,4130
13.10382,3982
13.10955,3144
13.11527,2171
13.12098,1743
13.12672,2259
13.13243,2115
13.13815,2352
13.14388,3457
13.14960,3105
13.15532,2905
13.16105,1954
13.16677,2487
13.17248,2716
13.17820,1618
13.18393,2078
13.18965,2819
13.19537,2488
13.20110,3744
13.20682,2767
13.21253,2661
13.21827,3446
13.22398,2299
13.22970,1972
13.23543,2472
13.24115,1907
13.24687,1619
13.25260,1794
13.25832,2215
13.26403,1474
13.26977,2859
13.27548,3015
13.28120,2833
13.28693,2227
13.29265,2523
13.29837,2030
13.30410,2139
13.30982,2378
13.31553,2258
13.32127,1769
13.32698,1849
13.33270,2134
13.33843,1845
13.34415,2480
13.34987,2213
13.35558,2290
13.36132,1926
13.36703,2278
13.37275,2098
13.37848,2825
13.38420,3358
13.38992,4561
13.39565,3857
13.40137,3176
13.40708,3625
13.41282,2241
13.41853,2951
13.42425,2414
13.42998,2707
13.43570,2543
13.44142,1327
13.44715,2603
13.45287,1986
13.45858,2436
13.46432,3262
13.47003,3821
13.47575,4752
13.48148,6084
13.48720,7673
13.49292,6840
13.49865,5113
13.50437,4947
13.51008,3613
13.51582,4596
13.52153,4775
13.52725,3152
13.53298,3584
13.53870,3520
13.54442,3545
13.55013,3463
13.55587,3137
13.56158,3102
13.56730,3512
13.57303,3540
13.57875,2589
13.58447,2789
13.59020,2649
13.59592,3844
13.60163,2391
13.60737,3163
13.61308,2163
13.61880,1899
13.62453,2436
13.63025,2504
13.63597,1903
13.64170,1831
13.64742,2381
13.65313,2081
13.65887,2474
13.66458,2331
13.67030,2781
13.67603,2852
13.68175,3356
13.68747,2745
13.69320,2563
13.69892,2620
13.70463,2746
13.71037,1879
13.71608,2315
13.72180,3479
13.72752,3914
13.73325,5071
13.73897,6798
13.74468,4698
13.75042,5526
13.75613,4094
13.76185,3144
13.76758,3291
13.77330,3282
13.77902,3078
13.78475,3270
13.79047,2429
13.79618,3206
13.80192,2692
13.80763,2984
13.81335,3041
13.81908,3138
13.82480,2859
13.83052,2769
13.83625,2564
13.84197,2513
13.84768,3443
13.85342,5839
13.85913,13878
13.86485,33861
13.87058,74016
13.87630,133205
13.88202,191797
13.88775,196410
13.89347,141406
13.89918,81173
13.90490,40813
13.91063,22891
13.91635,12904
13.92207,9843
13.92780,8063
13.93352,6853
13.93923,6709
13.94497,4885
13.95068,5841
13.95640,6308
13.96213,5903
13.96785,5290
13.97357,4805
13.97930,4563
13.98502,3689
13.99073,3891
13.99647,4009
14.00218,3706
14.00790,4376
14.01363,3864
14.01935,3452
14.02507,3769
14.03080,4302
14.03652,2827
14.04223,3640
14.04797,3618
14.05368,3649
14.05940,3900
14.06513,3387
14.07085,3697
14.07657,4125
14.08228,3903
14.08802,3327
14.09373,3554
14.09945,2637
14.10518,4004
14.11090,4038
14.11662,3542
14.12235,2815
14.12807,2475
14.13378,2717
14.13952,2869
14.14523,3180
14.15095,4106
14.15668,5364
14.16240,10797
14.16812,20972
14.17385,39738
14.17957,61536
14.18528,76505
14.19102,71107
14.19673,46623
14.20245,22445
14.20818,12668
14.21390,5286
14.21962,4441
14.22535,3967
14.23107,3787
14.23678,3769
14.24252,2777
14.24823,2902
14.25395,1064
14.25968,2606
14.26540,2685
14.27112,2694
14.27683,2319
14.28257,1929
14.28828,3007
14.29400,1998
14.29973,3091
14.30545,2616
14.31117,2643
14.31690,3894
14.32262,2774
14.32833,2656
14.33407,2681
14.33978,3431
14.34550,2710
14.35123,2829
14.35695,2109
14.36267,2546
14.36840,3416
14.37412,2249
14.37983,2847
14.38557,2349
14.39128,2985
14.39700,3475
14.40273,3908
14.40845,3798
14.41417,2586
14.41990,2835
14.42562,2785
14.43133,2296
14.43705,2322
14.44278,3003
14.44850,2517
14.45422,3071
14.45995,4503
14.46567,4188
14.47138,3610
14.47712,3294
14.48283,3217
14.48855,1701
14.49428,2696
14.50000,2164
14.50572,2936
14.51145,2814
14.51717,3707
14.52288,3897
14.52862,4429
14.53433,4137
14.54005,2440
14.54578,3221
14.55150,2881
14.55722,2593
14.56295,2250
14.56867,2333
14.57438,2029
14.58012,2580
14.58583,2510
14.59155,3263
14.59728,3460
14.60300,3220
14.60872,2921
14.61445,2677
14.62017,3139
14.62588,2452
14.63160,3338
14.63733,2384
14.64305,2971
14.64877,2817
14.65450,2551
14.66022,2928
14.66593,3882
14.67167,3788
14.67738,4184
14.68310,3203
14.68883,3207
14.69455,3504
14.70027,3943
14.70600,3205
14.71172,4348
14.71743,6023
14.72317,5499
14.72888,4050
14.73460,3613
14.74033,3474
14.74605,3527
14.75177,2143
14.75750,3242
14.76322,3509
14.76893,3816
14.77467,3679
14.78038,4998
14.78610,4385
14.79183,4498
14.79755,3302
14.80327,5658
14.80898,12766
14.81472,21578
14.82043,35892
14.82615,41395
14.83188,37362
14.83760,24443
14.84332,12914
14.84905,11315
14.85477,15893
14.86048,27449
14.86622,44689
14.87193,54573
14.87765,52077
14.88338,38083
14.88910,22477
14.89482,13355
14.90055,8751
14.90627,6077
14.91198,5070
14.91772,4577
14.92343,4024
14.92915,3663
14.93488,5398
14.94060,5072
14.94632,4967
14.95205,5315
14.95777,3931
14.96348,5336
14.96922,5998
14.97493,6246
14.98065,5879
14.98637,4427
14.99210,3654
14.99782,3522
15.00353,3223
15.00927,3350
15.01498,4110
15.02070,4203
15.02643,3834
15.03215,3133
15.03787,3689
15.04360,2592
15.04932,2790
15.05503,2632
15.06077,2565
15.06648,2046
15.07220,3415
15.07793,2826
15.08365,3126
15.08937,4066
15.09510,4210
15.10082,3061
15.10653,3246
15.11227,2730
15.11798,3512
15.12370,4437
15.12943,4697
15.13515,5263
15.14087,6726
15.14660,6823
15.15232,6327
15.15803,3933
15.16375,2757
15.16948,3009
15.17520,2611
15.18092,3036
15.18665,3098
15.19237,3364
15.19808,2592
15.20382,2928
15.20953,2592
15.21525,4020
15.22098,4393
15.22670,3583
15.23242,3347
15.23815,5334
15.24387,3920
15.24958,3616
15.25532,2465
15.26103,2812
15.26675,3073
15.27248,1799
15.27820,2301
15.28392,2388
15.28965,2596
15.29537,3320
15.30108,3906
15.30682,2616
15.31253,3978
15.31825,3783
15.32398,3198
15.32970,2570
15.33542,3461
15.34115,4694
15.34687,4024
15.35258,2629
15.35830,2723
15.36403,2400
15.36975,2483
15.37547,2915
15.38120,2450
15.38692,3480
15.39263,2856
15.39837,3769
15.40408,3063
15.40980,2613
15.41553,3065
15.42125,2959
15.42697,3098
15.43270,2872
15.43842,2978
15.44413,3281
15.44987,3141
15.45558,2611
15.46130,2276
15.46703,2614
15.47275,2532
15.47847,2358
15.48420,2326
15.48992,2761
15.49563,2819
15.50137,2232
15.50708,3298
15.51280,2522
15.51853,2777
15.52425,2649
15.52997,3435
15.53568,2151
15.54142,2854
15.54713,2684
15.55285,2431
15.55858,3003
15.56430,3176
15.57002,3120
15.57575,3011
15.58147,3687
15.58718,2677
15.59292,3183
15.59863,3224
15.60435,3683
15.61008,3947
15.61580,3877
15.62152,3882
15.62725,3930
15.63297,2377
15.63868,2839
15.64442,2160
15.65013,1826
15.65585,2660
15.66158,2708
15.66730,2380
15.67302,2672
15.67875,2225
15.68447,2287
15.69018,2572
15.69592,2737
15.70163,2731
15.70735,2306
15.71307,3427
15.71880,3372
15.72452,3175
15.73023,3332
15.73597,2944
15.74168,2272
15.74740,2814
15.75313,2222
15.75885,2346
15.76457,2929
15.77030,2411
15.77602,2677
15.78173,2855
15.78747,3056
15.79318,2480
15.79890,2442
15.80463,2781
15.81035,2398
15.81607,2824
15.82180,2783
15.82752,2572
15.83323,2746
15.83897,2137
15.84468,2197
15.85040,2956
15.85613,2652
15.86185,2548
15.86757,2034
15.87330,2417
15.87902,2494
15.88473,2028
15.89045,2973
15.89618,2953
15.90190,4230
15.90762,7254
15.91335,10314
15.91907,15100
15.92478,16690
15.93052,12081
15.93623,8932
15.94195,4427
15.94768,3427
15.95340,3111
15.95912,2644
15.96485,2792
15.97057,3144
15.97628,2753
15.98202,2176
15.98773,2218
15.99345,2426
15.99918,2256
16.00490,2388
16.01062,2265
16.01635,2340
16.02207,2444
16.02778,2074
16.03352,2678
16.03923,2004
16.04495,2963
16.05068,2311
16.05640,2289
16.06212,3220
16.06785,2034
16.07357,2491
16.07928,2568
16.08500,2796
16.09073,2806
16.09645,1912
16.10217,2814
16.10790,2309
16.11362,2313
16.11933,1789
16.12507,2600
16.13078,2353
16.13650,1902
16.14223,2175
16.14795,2223
16.15367,2582
16.15940,2730
16.16512,2550
16.17083,2758
16.17657,1932
16.18228,2422
16.18800,2261
16.19373,2235
16.19945,2023
16.20517,3009
16.21090,2135
16.21662,1829
16.22233,3151
16.22807,2720
16.23378,2814
16.23950,2443
16.24522,2075
16.25095,2203
16.25667,2090
16.26238,2523
16.26812,2290
16.27383,2407
16.27955,2725
16.28528,2511
16.29100,2777
16.29672,2580
16.30245,3002
16.30817,2028
16.31388,2397
16.31962,1424
16.32533,2134
16.33105,2580
16.33678,3075
16.34250,1950
16.34822,1940
16.35395,2195
16.35967,2553
16.36538,2831
16.37112,2243
16.37683,2609
16.38255,2240
16.38828,2472
16.39400,2188
16.39972,2175
16.40545,2591
16.41117,2192
16.41688,2593
16.42262,2570
16.42833,2403
16.43405,2776
16.43977,2379
16.44550,2351
16.45122,2186
16.45693,2839
16.46267,3047
16.46838,3024
16.47410,2613
16.47983,1882
16.48555,2880
16.49127,2023
16.49700,2215
16.50272,1855
16.50843,2584
16.51417,2602
16.51988,2433
16.52560,2549
16.53133,2538
16.53705,2420
16.54277,3089
16.54850,2480
16.55422,1569
16.55993,2625
16.56567,2244
16.57138,1908
16.57710,2445
16.58283,2203
16.58855,2260
16.59427,2112
16.60000,2473
16.60572,2536
16.61143,2499
16.61715,1855
16.62288,2426
16.62860,2766
16.63432,2851
16.64005,3032
16.64577,2698
16.65148,2503
16.65722,2188
16.66293,2749
16.66865,1913
16.67438,2497
16.68010,2372
16.68582,1906
16.69155,2681
16.69727,2374
16.70298,2766
16.70872,2067
16.71443,2270
16.72015,2241
16.72588,2035
16.73160,1975
16.73732,2952
16.74305,2275
16.74877,1219
16.75448,2720
16.76022,3274
16.76593,2848
16.77165,2356
16.77738,2314
16.78310,2324
16.78882,2388
16.79453,2281
16.80027,2757
16.80598,2568
16.81170,2181
16.81743,2672
16.82315,2443
16.82887,3064
16.83460,2828
16.84032,1639
16.84603,2021
16.85177,2262
16.85748,1983
16.86320,2038
16.86893,2238
16.87465,2766
16.88037,2377
16.88610,2469
16.89182,1997
16.89753,2297
16.90327,2408
16.90898,2905
16.91470,3148
16.92043,3051
16.92615,4251
16.93187,3460
16.93760,3086
16.94332,2946
16.94903,3259
16.95477,2819
16.96048,2848
16.96620,2333
16.97192,2990
16.97765,2910
16.98337,2392
16.98908,2535
16.99482,2293
17.00053,2003
17.00625,1880
17.01198,2958
17.01770,2114
17.02342,2625
17.02915,2079
17.03487,2335
17.04058,2819
17.04632,2817
17.05203,2229
17.05775,2135
17.06348,2628
17.06920,2187
17.07492,2671
17.08065,2057
17.08637,1397
17.09208,2684
17.09782,2472
17.10353,2483
17.10925,2594
17.11498,3023
17.12070,2469
17.12642,2490
17.13215,2541
17.13787,1948
17.14358,2756
17.14932,2180
17.15503,2476
17.16075,2569
17.16647,2910
17.17220,2307
17.17792,1503
17.18363,1755
17.18937,3139
17.19508,1952
17.20080,2161
17.20653,1982
17.21225,2553
17.21797,3331
17.22370,2273
17.22942,2243
17.23513,3419
17.24087,2967
17.24658,2429
17.25230,2226
17.25803,2091
17.26375,2315
17.26947,2694
17.27520,3126
17.28092,3221
17.28663,2236
17.29237,2066
17.29808,2256
17.30380,3124
17.30953,2642
17.31525,2570
17.32097,3049
17.32670,3441
17.33242,3038
17.33813,3546
17.34385,3555
17.34958,3553
17.35530,3334
17.36102,2929
17.36675,2824
17.37247,2462
17.37818,2287
17.38392,3084
17.38963,3447
17.39535,2137
17.40108,2783
17.40680,3858
17.41252,2402
17.41825,2531
17.42397,2998
17.42968,2871
17.43542,2342
17.44113,2848
17.44685,3292
17.45258,2732
17.45830,4107
17.46402,5066
17.46975,5891
17.47547,6947
17.48118,7106
17.48692,4198
17.49263,4488
17.49835,4539
17.50408,3943
17.50980,2829
17.51552,2405
17.52123,2776
17.52697,2812
17.53268,2714
17.53840,2999
17.54413,2378
17.54985,2419
17.55557,1824
17.56130,3783
17.56702,2776
17.57273,2965
17.57847,3030
17.58418,2916
17.58990,2943
17.59563,3182
17.60135,2794
17.60707,2266
17.61280,3203
17.61852,3785
17.62423,3396
17.62997,3609
17.63568,3382
17.64140,2622
17.64713,3286
17.65285,3380
17.65857,2571
17.66430,3008
17.67002,2739
17.67573,2641
17.68147,2864
17.68718,2573
17.69290,2427
17.69862,3168
17.70435,3153
17.71007,3280
17.71578,3147
17.72152,2663
17.72723,2871
17.73295,2657
17.73868,3425
17.74440,3330
17.75012,2749
17.75585,3634
17.76157,2418
17.76728,3039
17.77302,3669
17.77873,2326
17.78445,3155
17.79018,3288
17.79590,3569
17.80162,2542
17.80735,2940
17.81307,3452
17.81878,2544
17.82452,2924
17.83023,3216
17.83595,2640
17.84168,4093
17.84740,2824
17.85312,3379
17.85885,3136
17.86457,3391
17.87028,3777
17.87602,2423
17.88173,3222
17.88745,3673
17.89317,4066
17.89890,3387
17.90462,3632
17.91033,3553
17.91607,3338
17.92178,2762
17.92750,4015
17.93323,2969
17.93895,3726
17.94467,3176
17.95040,3048
17.95612,2919
17.96183,3061
17.96757,3192
17.97328,2642
17.97900,3146
17.98473,2825
17.99045,3838
17.99617,3448
18.00190,2937
18.00762,3517
18.01333,4172
18.01907,4804
18.02478,4313
18.03050,3738
18.03623,4377
18.04195,4389
18.04767,3849
18.05340,4116
18.05912,5072
18.06483,4007
18.07055,4949
18.07628,4308
18.08200,3199
18.08772,4354
18.09345,3717
18.09917,3438
18.10488,4075
18.11062,3416
18.11633,3482
18.12205,4606
18.12778,4236
18.13350,3522
18.13922,2815
18.14495,3436
18.15067,2389
18.15638,2668
18.16212,4595
18.16783,3079
18.17355,3266
18.17928,3402
18.18500,3010
18.19072,3650
18.19645,4421
18.20217,3165
18.20788,3640
18.21362,4421
18.21933,3640
18.22505,4616
18.23078,2564
18.23650,3939
18.24222,3111
18.24793,3232
18.25367,3176
18.25938,4214
18.26510,4237
18.27083,3417
18.27655,2992
18.28227,2978
18.28800,2946
18.29372,3098
18.29943,3351
18.30517,3484
18.31088,5071
18.31660,2640
18.32233,3314
18.32805,3753
18.33377,3424
18.33950,3155
18.34522,3472
18.35093,3396
18.35667,2883
18.36238,3242
18.36810,3771
18.37383,2461
18.37955,2423
18.38527,2339
18.39100,3926
18.39672,3449
18.40243,3321
18.40817,3276
18.41388,3404
18.41960,3786
18.42532,4564
18.43105,3675
18.43677,3287
18.44248,2952
18.44822,3068
18.45393,4734
18.45965,4340
18.46538,5698
18.47110,5785
18.47682,5471
18.48255,3740
18.48827,2704
18.49398,3047
18.49972,3586
18.50543,2466
18.51115,3469
18.51688,3938
18.52260,2503
18.52832,3386
18.53405,3891
18.53977,3547
18.54548,3432
18.55122,4820
18.55693,4457
18.56265,5970
18.56838,8428
18.57410,7831
18.57982,7738
18.58555,6769
18.59127,4877
18.59698,4532
18.60270,3834
18.60843,4698
18.61415,3605
18.61987,4856
18.62560,3682
18.63132,3348
18.63703,3906
18.64277,3220
18.64848,3037
18.65420,4782
18.65993,3670
18.66565,3840
18.67137,3725
18.67710,3366
18.68282,4002
18.68853,3251
18.69427,4315
18.69998,3899
18.70570,3178
18.71143,3308
18.71715,3599
18.72287,3562
18.72860,3623
18.73432,3308
18.74003,3329
18.74577,3311
18.75148,3668
18.75720,2714
18.76293,3298
18.76865,2898
18.77437,5161
18.78008,7465
18.78582,15173
18.79153,34590
18.79725,60349
18.80298,89523
18.80870,96783
18.81442,83748
18.82015,60123
18.82587,36100
18.83158,24464
18.83732,17455
18.84303,14858
18.84875,13371
18.85448,12421
18.86020,12636
18.86592,9345
18.87165,9482
18.87737,11418
18.88308,12151
18.88882,12861
18.89453,14460
18.90025,14089
18.90598,14537
18.91170,17758
18.91742,28614
18.92315,51363
18.92887,78335
18.93458,103203
18.94032,96299
18.94603,65083
18.95175,37807
18.95748,23172
18.96320,18295
18.96892,14862
18.97463,12287
18.98037,10426
18.98608,10387
18.99180,8165
18.99753,9269
19.00325,9373
19.00897,11057
19.01470,13505
19.02042,14140
19.02613,11087
19.03187,11098
19.03758,9149
19.04330,8151
19.04903,8434
19.05475,7409
19.06047,7431
19.06620,6501
19.07192,6619
19.07763,7304
19.08337,6646
19.08908,6357
19.09480,6971
19.10053,6399
19.10625,6499
19.11197,7165
19.11770,5398
19.12342,6297
19.12913,7312
19.13487,6409
19.14058,6502
19.14630,6912
19.15202,5785
19.15775,6225
19.16347,5893
19.16918,6018
19.17492,4752
19.18063,7240
19.18635,5939
19.19208,5649
19.19780,5799
19.20352,5157
19.20925,5376
19.21497,5961
19.22068,5707
19.22642,5241
19.23213,5795
19.23785,6666
19.24358,4828
19.24930,6531
19.25502,5910
19.26075,5338
19.26647,5479
19.27218,5829
19.27792,6218
19.28363,6207
19.28935,6011
19.29508,6087
19.30080,5979
19.30652,5177
19.31225,5596
19.31797,5730
19.32368,5277
19.32940,5925
19.33513,5884
19.34085,6418
19.34657,6687
19.35230,5167
19.35802,5290
19.36373,6543
19.36947,6344
19.37518,6126
19.38090,5711
19.38663,5681
19.39235,5152
19.39807,5194
19.40380,5492
19.40952,6487
19.41523,5492
19.42097,5302
19.42668,6395
19.43240,5664
19.43813,4651
19.44385,6079
19.44957,6000
19.45530,6231
19.46102,7123
19.46673,7047
19.47247,7684
19.47818,7604
19.48390,6660
19.48963,4848
19.49535,4417
19.50107,5397
19.50678,5773
19.51252,6725
19.51823,5893
19.52395,5088
19.52968,5463
19.53540,5610
19.54112,5322
19.54685,4763
19.55257,4836
19.55828,6493
19.56402,5098
19.56973,5080
19.57545,5604
19.58118,5519
19.58690,5619
19.59262,5289
19.59835,5607
19.60407,4663
19.60978,5156
19.61552,4614
19.62123,5502
19.62695,5214
19.63268,4996
19.63840,5510
19.64412,6072
19.64985,6706
19.65557,5289
19.66128,5790
19.66702,6232
19.67273,4722
19.67845,4735
19.68418,4893
19.68990,5412
19.69562,5771
19.70133,5192
19.70707,6171
19.71278,6580
19.71850,5755
19.72423,5651
19.72995,5414
19.73567,6635
19.74140,4804
19.74712,4907
19.75283,5581
19.75857,5897
19.76428,6788
19.77000,5683
19.77573,6630
19.78145,5039
19.78717,7328
19.79290,5680
19.79862,5450
19.80433,4464
19.81007,6062
19.81578,6354
19.82150,6514
19.82723,5497
19.83295,5403
19.83867,5543
19.84440,6142
19.85012,5202
19.85583,5308
19.86157,6555
19.86728,5322
19.87300,6577
19.87872,5469
19.88445,5331
19.89017,4798
19.89588,5493
19.90162,5720
19.90733,5854
19.91305,5534
19.91878,5825
19.92450,7120
19.93022,5461
19.93595,5670
19.94167,6560
19.94738,5916
19.95312,5421
19.95883,6188
19.96455,6315
19.97028,5262
19.97600,5620
19.98172,6084
19.98745,4864
19.99317,6221
19.99888,5343
20.00462,5368
20.01033,5710
20.01605,4623
20.02178,5360
20.02750,4590
20.03322,6511
20.03895,6336
20.04467,5020
20.05038,6801
20.05610,6277
20.06183,5075
20.06755,5453
20.07327,6306
20.07900,5708
20.08472,5526
20.09043,6247
20.09617,5513
20.10188,6736
20.10760,6499
20.11333,5769
20.11905,6438
20.12477,5089
20.13050,5389
20.13622,5803
20.14193,5713
20.14767,6806
20.15338,5303
20.15910,5833
20.16483,6423
20.17055,8445
20.17627,11140
20.18200,14467
20.18772,16392
20.19343,15862
20.19917,12488
20.20488,9532
20.21060,7773
20.21633,6573
20.22205,6966
20.22777,5223
20.23348,6318
20.23922,5028
20.24493,5992
20.25065,5730
20.25638,5457
20.26210,6127
20.26782,6239
20.27355,6799
20.27927,6224
20.28498,6662
20.29072,7429
20.29643,6763
20.30215,6735
20.30788,6425
20.31360,7186
20.31932,7033
20.32505,7034
20.33077,7895
20.33648,7217
20.34222,7123
20.34793,6620
20.35365,6635
20.35938,5613
20.36510,6524
20.37082,7542
20.37655,6156
20.38227,5162
20.38798,6109
20.39372,5839
20.39943,6789
20.40515,7248
20.41087,6504
20.41660,6281
20.42232,6527
20.42803,8416
20.43377,6663
20.43948,6606
20.44520,7271
20.45093,6199
20.45665,6425
20.46237,5954
20.46810,5774
20.47382,5400
20.47953,7307
20.48527,7380
20.49098,7574
20.49670,7667
20.50243,6624
20.50815,7304
20.51387,7385
20.51960,6462
20.52532,6710
20.53103,6457
20.53677,6852
20.54248,7093
20.54820,6281
20.55393,7862
20.55965,6545
20.56537,5879
20.57110,8070
20.57682,6522
20.58253,6706
20.58825,7665
20.59398,7408
20.59970,6707
20.60542,7581
20.61115,7784
20.61687,8214
20.62258,7256
20.62832,6200
20.63403,8027
20.63975,7928
20.64548,6552
20.65120,7531
20.65692,7204
20.66265,7482
20.66837,6849
20.67408,7205
20.67982,7039
20.68553,6963
20.69125,7337
20.69698,6585
20.70270,6949
20.70842,7176
20.71415,8477
20.71987,7524
20.72558,8705
20.73132,8005
20.73703,8050
20.74275,8124
20.74848,7750
20.75420,8461
20.75992,6964
20.76565,8091
20.77137,8146
20.77708,7775
20.78280,7697
20.78853,7495
20.79425,8190
20.79997,7746
20.80570,6875
20.81142,7600
20.81713,7779
20.82287,7724
20.82858,8457
20.83430,8410
20.84003,7340
20.84575,7155
20.85147,7677
20.85720,6669
20.86292,7864
20.86863,7254
20.87437,9080
20.88008,11178
20.88580,11664
20.89153,13492
20.89725,15364
20.90297,12716
20.90870,11361
20.91442,9999
20.92013,7947
20.92587,7593
20.93158,7760
20.93730,9403
20.94303,7710
20.94875,8570
20.95447,8436
20.96018,7958
20.96592,9112
20.97163,7519
20.97735,8611
20.98308,9724
20.98880,7477
20.99452,8848
21.00025,8688
21.00597,9535
21.01168,8010
21.01742,8659
21.02313,7539
21.02885,8721
21.03458,9110
21.04030,7060
21.04602,8239
21.05175,9486
21.05747,7276
21.06318,8516
21.06892,8492
21.07463,9205
21.08035,8182
21.08608,7505
21.09180,8802
21.09752,7912
21.10325,8667
21.10897,7773
21.11468,9874
21.12042,8903
21.12613,8666
21.13185,7707
21.13757,10193
21.14330,9318
21.14902,9399
21.15473,9516
21.16047,11207
21.16618,10382
21.17190,11004
21.17763,10160
21.18335,8501
21.18907,9404
21.19480,9437
21.20052,8711
21.20623,8472
21.21197,8144
21.21768,8908
21.22340,8369
21.22913,9615
21.23485,8973
21.24057,8526
21.24630,8754
21.25202,9845
21.25773,8958
21.26347,9434
21.26918,9026
21.27490,8982
21.28063,10082
21.28635,9688
21.29207,8768
21.29780,9134
21.30352,10364
21.30923,9735
21.31495,9490
21.32068,10867
21.32640,9402
21.33212,9454
21.33785,8958
21.34357,9454
21.34928,9776
21.35502,10229
21.36073,10378
21.36645,9443
21.37218,11600
21.37790,14744
21.38362,18057
21.38935,20940
21.39507,25025
21.40078,25877
21.40652,23504
21.41223,18256
21.41795,13868
21.42368,11274
21.42940,10857
21.43512,10345
21.44085,9706
21.44657,9731
21.45228,10123
21.45802,9688
21.46373,9581
21.46945,9704
21.47518,10162
21.48090,9957
21.48662,11401
21.49235,8942
21.49807,10040
21.50378,11184
21.50950,11105
21.51523,8643
21.52095,9514
21.52667,9447
21.53240,9075
21.53812,9993
21.54383,10433
21.54957,10001
21.55528,9832
21.56100,9878
21.56673,10696
21.57245,9140
21.57817,9149
21.58390,9528
21.58962,9251
21.59533,9306
21.60107,9272
21.60678,11241
21.61250,10640
21.61823,10180
21.62395,8786
21.62967,10055
21.63540,9817
21.64112,10984
21.64683,10395
21.65257,9700
21.65828,10011
21.66400,11090
21.66973,10988
21.67545,8865
21.68117,10753
21.68688,10073
21.69262,10129
21.69833,9518
21.70405,9837
21.70978,10589
21.71550,9771
21.72122,10263
21.72695,10340
21.73267,9728
21.73838,9667
21.74412,10459
21.74983,9939
21.75555,10100
21.76128,9152
21.76700,11106
21.77272,10026
21.77845,9836
21.78417,10692
21.78988,9355
21.79562,10812
21.80133,11926
21.80705,9003
21.81278,10458
21.81850,11069
21.82422,11944
21.82995,9582
21.83567,9692
21.84138,9836
21.84712,9938
21.85283,9572
21.85855,10308
21.86427,9587
21.87000,9869
21.87572,11384
21.88143,9739
21.88717,10433
21.89288,9737
21.89860,8736
21.90433,11562
21.91005,9802
21.91577,10069
21.92150,10888
21.92722,10848
21.93293,9196
21.93867,10430
21.94438,10270
21.95010,11296
21.95583,10731
21.96155,11402
21.96727,9984
21.97300,10949
21.97872,11256
21.98443,11055
21.99017,11714
21.99588,13114
22.00160,13216
22.00733,13271
22.01305,12791
22.01877,11284
22.02450,11931
22.03022,11329
22.03593,11192
22.04165,11061
22.04738,11033
22.05310,11733
22.05882,12666
22.06455,12504
22.07027,11987
22.07598,10382
22.08172,10880
22.08743,10652
22.09315,11459
22.09888,12746
22.10460,10478
22.11032,12714
22.11605,11637
22.12177,11720
22.12748,9744
22.13322,10205
22.13893,11055
22.14465,10614
22.15038,10474
22.15610,9484
22.16182,12027
22.16755,11634
22.17327,10834
22.17898,11414
22.18472,11954
22.19043,11023
22.19615,10695
22.20188,11873
22.20760,10297
22.21332,11166
22.21903,10121
22.22477,10191
22.23048,10221
22.23620,10641
22.24193,11340
22.24765,10591
22.25337,9681
22.25910,11247
22.26482,9338
22.27053,9116
22.27627,10200
22.28198,10143
22.28770,10633
22.29343,10912
22.29915,9761
22.30487,11230
22.31060,10214
22.31632,11137
22.32203,10043
22.32777,9580
22.33348,10337
22.33920,10503
22.34493,10581
22.35065,11188
22.35637,10260
22.36210,11227
22.36782,10747
22.37353,11088
22.37927,11411
22.38498,10325
22.39070,10165
22.39642,10214
22.40215,10591
22.40787,11678
22.41358,10970
22.41932,9529
22.42503,10124
22.43075,10234
22.43648,9673
22.44220,10118
22.44792,10883
22.45365,10615
22.45937,11826
22.46508,11701
22.47082,11041
22.47653,14313
22.48225,13055
22.48798,13342
22.49370,13202
22.49942,11513
22.50515,11034
22.51087,11481
22.51658,11289
22.52232,11522
22.52803,10655
22.53375,12591
22.53948,10372
22.54520,11571
22.55092,11628
22.55665,10089
22.56237,10744
22.56808,10314
22.57382,9604
22.57953,10743
22.58525,11051
22.59097,9476
22.59670,11259
22.60242,10198
22.60813,11611
22.61387,12294
22.61958,17039
22.62530,26208
22.63103,42506
22.63675,69474
22.64247,100260
22.64820,132760
22.65392,157192
22.65963,159120
22.66537,145170
22.67108,117002
22.67680,90245
22.68253,64874
22.68825,46752
22.69397,41382
22.69970,31196
22.70542,28407
22.71113,25990
22.71687,26212
22.72258,22214
22.72830,23237
22.73403,22530
22.73975,21404
22.74547,20580
22.75120,19890
22.75692,19549
22.76263,20126
22.76835,19225
22.77408,20073
22.77980,22648
22.78552,25320
22.79125,30083
22.79697,34649
22.80268,36651
22.80842,39974
22.81413,39610
22.81985,37510
22.82558,30640
22.83130,26316
22.83702,22396
22.84275,20614
22.84847,19428
22.85418,17675
22.85992,17686
22.86563,15147
22.87135,15708
22.87708,16544
22.88280,16286
22.88852,14946
22.89425,14000
22.89997,15382
22.90568,15176
22.91142,16099
22.91713,14010
22.92285,14859
22.92858,13266
22.93430,14611
22.94002,13331
22.94573,14686
22.95147,14819
22.95718,13254
22.96290,14399
22.96863,14493
22.97435,14448
22.98007,13299
22.98580,14449
22.99152,13607
22.99723,13759
23.00297,14064
23.00868,13298
23.01440,13426
23.02013,14509
23.02585,13331
23.03157,12681
23.03730,13253
23.04302,13183
23.04873,13889
23.05447,13239
23.06018,14426
23.06590,13569
23.07163,13658
23.07735,12277
23.08307,13416
23.08880,12280
23.09452,12322
23.10023,12662
23.10597,13055
23.11168,12456
23.11740,12763
23.12312,14323
23.12885,11966
23.13457,14457
23.14028,14905
23.14602,13783
23.15173,14051
23.15745,13339
23.16318,12293
23.16890,12762
23.17462,13570
23.18035,13450
23.18607,13124
23.19178,12566
23.19752,12850
23.20323,12865
23.20895,13478
23.21468,12009
23.22040,13449
23.22612,13176
23.23185,11755
23.23757,12231
23.24328,12043
23.24902,12373
23.25473,11728
23.26045,12102
23.26618,11364
23.27190,12089
23.27762,12884
23.28335,14056
23.28907,12654
23.29478,13011
23.30050,13268
23.30623,12492
23.31195,12234
23.31767,11982
23.32340,11071
23.32912,12711
23.33483,11860
23.34057,12500
23.34628,13315
23.35200,11101
23.35773,11596
23.36345,9804
23.36917,13638
23.37490,11740
23.38062,12958
23.38633,11838
23.39207,11623
23.39778,13127
23.40350,12158
23.40923,12307
23.41495,12460
23.42067,12085
23.42640,11961
23.43212,12922
23.43783,11362
23.44357,12284
23.44928,11956
23.45500,12309
23.46073,11999
23.46645,10630
23.47217,11568
23.47790,10645
23.48362,11189
23.48933,12639
23.49505,9892
23.50078,12307
23.50650,11507
23.51222,12692
23.51795,10999
23.52367,11923
23.52938,12779
23.53512,11737
23.54083,11300
23.54655,12414
23.55228,10636
23.55800,12040
23.56372,11090
23.56945,12240
23.57517,11340
23.58088,11665
23.58662,11153
23.59233,11723
23.59805,12143
23.60378,12204
23.60950,10516
23.61522,11191
23.62095,12993
23.62667,10954
23.63238,12146
23.63812,12547
23.64383,11378
23.64955,12461
23.65528,12464
23.66100,10657
23.66672,11524
23.67243,12348
23.67817,11126
23.68388,10598
23.68960,11115
23.69533,11171
23.70105,11139
23.70677,11618
23.71250,10853
23.71822,11263
23.72393,12785
23.72967,10231
23.73538,11101
23.74110,11041
23.74683,12353
23.75255,12138
23.75827,11049
23.76400,12181
23.76972,11480
23.77543,11600
23.78117,10929
23.78688,11950
23.79260,11428
23.79833,10715
23.80405,11271
23.80977,11479
23.81550,11007
23.82122,11989
23.82693,11591
23.83267,11489
23.83838,11116
23.84410,12252
23.84982,11246
23.85555,11484
23.86127,11535
23.86698,11537
23.87272,11663
23.87843,12011
23.88415,11117
23.88988,11608
23.89560,11016
23.90132,12155
23.90705,11779
23.91277,11737
23.91848,10834
23.92422,11216
23.92993,9932
23.93565,9885
23.94138,12269
23.94710,12005
23.95282,10652
23.95855,11502
23.96427,10911
23.96998,10480
23.97572,10266
23.98143,9441
23.98715,10491
23.99288,10974
23.99860,9996
24.00432,11107
24.01005,10820
24.01577,11107
24.02148,10458
24.02720,11214
24.03293,11258
24.03865,10398
24.04437,11353
24.05010,12113
24.05582,11143
24.06153,10594
24.06727,10748
24.07298,11497
24.07870,11832
24.08443,10681
24.09015,10617
24.09587,10628
24.10160,10389
24.10732,10053
24.11303,10441
24.11877,10794
24.12448,10745
24.13020,11152
24.13593,11154
24.14165,11362
24.14737,11343
24.15310,10607
24.15882,10517
24.16453,10658
24.17027,12257
24.17598,10933
24.18170,11827
24.18743,11904
24.19315,10826
24.19887,10639
24.20458,13137
24.21032,11698
24.21603,11413
24.22175,11135
24.22748,11985
24.23320,11735
24.23892,11750
24.24465,12496
24.25037,12480
24.25608,11142
24.26182,12063
24.26753,12953
24.27325,12407
24.27898,11687
24.28470,11460
24.29042,10979
24.29615,11593
24.30187,12715
24.30758,12843
24.31332,11840
24.31903,11110
24.32475,12713
24.33048,10921
24.33620,10874
24.34192,9511
24.34765,11885
24.35337,10653
24.35908,11552
24.36482,11967
24.37053,10733
24.37625,11218
24.38197,11686
24.38770,11902
24.39342,11141
24.39913,10046
24.40487,9978
24.41058,12018
24.41630,11118
24.42203,9803
24.42775,10535
24.43347,11478
24.43920,12696
24.44492,12471
24.45063,12182
24.45637,10279
24.46208,11023
24.46780,11373
24.47353,10294
24.47925,11941
24.48497,10798
24.49070,10537
24.49642,10711
24.50213,10521
24.50787,10005
24.51358,10899
24.51930,9585
24.52503,9962
24.53075,11185
24.53647,11438
24.54220,9897
24.54792,10317
24.55363,10922
24.55937,9639
24.56508,11265
24.57080,10067
24.57652,12205
24.58225,11011
24.58797,11642
24.59368,11959
24.59942,12392
24.60513,14638
24.61085,14668
24.61658,17849
24.62230,23100
24.62802,26684
24.63375,28045
24.63947,31873
24.64518,31688
24.65092,34234
24.65663,31255
24.66235,30341
24.66808,25915
24.67380,23932
24.67952,21582
24.68525,16551
24.69097,14359
24.69668,13711
24.70242,12587
24.70813,11580
24.71385,12487
24.71958,11131
24.72530,10624
24.73102,10998
24.73675,11047
24.74247,10589
24.74818,10337
24.75390,10355
24.75963,11453
24.76535,9974
24.77107,10291
24.77680,9911
24.78252,10474
24.78823,10821
24.79397,11596
24.79968,9913
24.80540,10428
24.81113,11523
24.81685,10438
24.82257,11354
24.82830,11733
24.83402,11124
24.83973,10916
24.84547,9631
24.85118,9877
24.85690,10919
24.86263,10109
24.86835,10510
24.87407,10858
24.87980,11158
24.88552,10343
24.89123,11505
24.89697,9921
24.90268,12423
24.90840,11360
24.91413,9037
24.91985,9928
24.92557,11261
24.93128,10618
24.93702,10937
24.94273,10230
24.94845,10674
24.95418,10252
24.95990,9761
24.96562,10217
24.97135,10601
24.97707,10571
24.98278,9938
24.98852,9078
24.99423,9732
24.99995,10461
25.00568,10153
25.01140,10373
25.01712,10229
25.02285,11441
25.02857,9452
25.03428,11097
25.04002,9914
25.04573,10516
25.05145,11093
25.05718,11071
25.06290,10503
25.06862,9991
25.07435,9960
25.08007,11519
25.08578,10228
25.09152,8869
25.09723,11351
25.10295,9483
25.10867,8971
25.11440,10544
25.12012,9700
25.12583,10592
25.13157,10496
25.13728,11201
25.14300,10743
25.14873,10199
25.15445,9490
25.16017,10490
25.16590,9957
25.17162,11514
25.17733,10105
25.18307,9899
25.18878,10455
25.19450,10542
25.20023,10077
25.20595,11639
25.21167,10104
25.21740,11248
25.22312,10989
25.22883,11479
25.23457,11268
25.24028,9358
25.24600,10104
25.25173,11141
25.25745,9229
25.26317,10255
25.26890,9824
25.27462,9711
25.28033,9379
25.28607,10277
25.29178,10554
25.29750,9532
25.30322,9634
25.30895,10150
25.31467,10330
25.32038,9890
25.32612,9570
25.33183,10442
25.33755,10841
25.34328,9303
25.34900,10194
25.35472,10862
25.36045,9890
25.36617,11028
25.37188,9702
25.37762,9799
25.38333,9423
25.38905,10510
25.39478,9239
25.40050,10053
25.40622,9435
25.41195,9753
25.41767,9999
25.42338,10544
25.42912,9843
25.43483,10566
25.44055,10085
25.44628,9686
25.45200,10072
25.45772,10860
25.46343,9807
25.46917,10201
25.47488,9990
25.48060,11145
25.48633,11794
25.49205,10493
25.49777,11187
25.50350,11015
25.50922,10990
25.51493,10454
25.52067,11216
25.52638,10362
25.53210,10771
25.53783,10608
25.54355,10095
25.54927,10381
25.55500,10649
25.56072,10165
25.56643,11327
25.57217,9511
25.57788,9963
25.58360,11087
25.58933,9750
25.59505,10983
25.60077,11687
25.60650,10926
25.61222,10462
25.61793,9313
25.62367,9674
25.62938,9951
25.63510,10377
25.64083,10455
25.64655,9456
25.65227,9725
25.65798,12357
25.66372,9869
25.66943,10617
25.67515,9447
25.68088,9341
25.68660,10636
25.69232,10679
25.69805,8933
25.70377,10580
25.70948,9794
25.71522,9568
25.72093,9922
25.72665,10366
25.73238,10555
25.73810,9046
25.74382,10080
25.74955,9334
25.75527,11846
25.76098,11226
25.76672,10109
25.77243,9207
25.77815,11456
25.78388,10108
25.78960,9333
25.79532,10734
25.80105,9745
25.80677,9527
25.81248,10540
25.81822,8353
25.82393,10000
25.82965,10940
25.83537,11441
25.84110,9954
25.84682,9505
25.85253,10127
25.85827,10089
25.86398,10312
25.86970,10437
25.87543,8740
25.88115,10130
25.88687,10234
25.89260,10452
25.89832,9670
25.90403,9411
25.90977,8502
25.91548,11109
25.92120,9940
25.92693,9821
25.93265,8275
25.93837,11490
25.94410,10851
25.94982,10080
25.95553,10079
25.96127,9349
25.96698,9408
25.97270,9719
25.97843,11180
25.98415,10596
25.98987,10124
25.99560,9869
26.00132,10950
26.00703,11013
26.01275,9797
26.01848,10266
26.02420,9632
26.02992,10322
26.03565,9870
26.04137,9938
26.04708,9887
26.05282,10619
26.05853,11181
26.06425,9932
26.06998,10532
26.07570,9880
26.08142,11125
26.08715,10064
26.09287,10569
26.09858,9815
26.10432,8596
26.11003,9530
26.11575,9235
26.12148,8313
26.12720,10242
26.13292,10189
26.13865,8954
26.14437,10262
26.15008,10139
26.15582,9508
26.16153,10426
26.16725,9903
26.17298,10399
26.17870,10059
26.18442,10065
26.19013,11659
26.19587,13806
26.20158,16378
26.20730,21899
26.21303,27964
26.21875,35410
26.22447,51278
26.23020,60250
26.23592,74055
26.24163,87269
26.24737,99210
26.25308,107349
26.25880,112904
26.26453,117585
26.27025,114127
26.27597,99903
26.28170,91501
26.28742,77008
26.29313,70031
26.29887,57101
26.30458,46617
26.31030,36623
26.31603,31641
26.32175,29029
26.32747,26835
26.33320,21824
26.33892,21146
26.34463,22203
26.35037,19555
26.35608,19158
26.36180,20196
26.36753,17017
26.37325,16161
26.37897,17537
26.38468,17393
26.39042,16440
26.39613,15679
26.40185,16895
26.40758,16938
26.41330,16069
26.41902,15584
26.42475,15593
26.43047,16143
26.43618,16578
26.44192,15777
26.44763,15178
26.45335,13475
26.45908,14445
26.46480,15086
26.47052,16981
26.47625,13750
26.48197,15171
26.48768,14801
26.49342,14034
26.49913,13805
26.50485,14440
26.51058,14086
26.51630,14129
26.52202,14682
26.52775,14296
26.53347,15368
26.53918,13936
26.54492,14771
26.55063,14504
26.55635,14244
26.56207,14377
26.56780,13766
26.57352,13129
26.57923,14241
26.58497,14318
26.59068,12211
26.59640,13681
26.60213,13824
26.60785,12705
26.61357,13175
26.61930,12796
26.62502,13837
26.63073,11800
26.63647,12932
26.64218,13118
26.64790,13082
26.65363,13092
26.65935,13182
26.66507,12315
26.67080,12353
26.67652,14567
26.68223,13739
26.68797,12990
26.69368,12645
26.69940,13369
26.70513,12934
26.71085,12167
26.71657,13759
26.72230,13220
26.72802,13434
26.73373,12798
26.73945,11644
26.74518,11259
26.75090,13158
26.75662,13405
26.76235,12240
26.76807,11354
26.77378,13646
26.77952,11621
26.78523,13458
26.79095,14553
26.79668,12936
26.80240,12382
26.80812,11563
26.81385,11715
26.81957,13635
26.82528,11603
26.83102,11154
26.83673,11671
26.84245,11847
26.84818,11012
26.85390,11364
26.85962,11531
26.86535,12105
26.87107,12144
26.87678,11310
26.88252,11589
26.88823,12842
26.89395,11759
26.89968,12372
26.90540,12929
26.91112,11835
26.91683,11423
26.92257,11773
26.92828,11653
26.93400,12421
26.93973,12428
26.94545,11265
26.95117,12175
26.95690,9792
26.96262,12449
26.96833,12017
26.97407,13003
26.97978,12036
26.98550,11231
26.99123,11836
26.99695,10320
27.00267,9742
27.00840,11611
27.01412,10933
27.01983,12503
27.02557,11832
27.03128,10985
27.03700,11392
27.04273,11497
27.04845,12092
27.05417,13837
27.05990,12832
27.06562,13665
27.07133,13272
27.07707,14552
27.08278,15600
27.08850,16535
27.09423,18116
27.09995,20338
27.10567,22136
27.11138,23178
27.11712,24116
27.12283,28412
27.12855,28029
27.13428,28812
27.14000,29720
27.14572,28716
27.15145,28024
27.15717,28078
27.16288,24872
27.16862,25147
27.17433,22297
27.18005,21782
27.18578,19114
27.19150,17268
27.19722,16258
27.20295,15479
27.20867,12616
27.21438,12685
27.22012,12784
27.22583,11958
27.23155,11549
27.23728,11594
27.24300,11501
27.24872,12120
27.25445,11207
27.26017,11954
27.26588,10642
27.27160,11700
27.27733,11603
27.28305,12458
27.28877,11966
27.29450,11502
27.30022,11161
27.30593,11844
27.31167,12075
27.31738,9707
27.32310,12565
27.32883,11306
27.33455,11439
27.34027,11567
27.34600,10262
27.35172,13174
27.35743,11846
27.36317,11681
27.36888,10843
27.37460,12382
27.38033,10768
27.38605,11941
27.39177,10792
27.39750,10883
27.40322,12259
27.40893,10923
27.41467,11682
27.42038,12396
27.42610,11380
27.43183,11288
27.43755,10485
27.44327,10882
27.44900,10151
27.45472,11345
27.46043,11128
27.46615,11577
27.47188,11719
27.47760,10938
27.48332,12726
27.48905,10111
27.49477,11242
27.50048,11082
27.50622,11593
27.51193,12441
27.51765,11521
27.52338,11793
27.52910,11178
27.53482,11001
27.54055,10648
27.54627,10817
27.55198,11479
27.55772,11623
27.56343,11896
27.56915,11780
27.57488,10710
27.58060,11042
27.58632,11129
27.59205,9746
27.59777,11644
27.60348,10789
27.60922,10937
27.61493,10844
27.62065,10696
27.62638,10282
27.63210,11932
27.63782,10325
27.64353,10930
27.64927,10465
27.65498,12008
27.66070,11880
27.66643,11666
27.67215,11606
27.67787,11071
27.68360,9400
27.68932,12529
27.69503,10803
27.70077,11050
27.70648,10094
27.71220,10812
27.71793,11372
27.72365,11224
27.72937,10297
27.73510,10234
27.74082,10645
27.74653,11291
27.75227,11328
27.75798,9783
27.76370,11870
27.76943,10176
27.77515,10931
27.78087,10466
27.78660,12360
27.79232,12065
27.79803,10635
27.80377,11216
27.80948,10922
27.81520,11412
27.82092,9700
27.82665,9295
27.83237,11307
27.83808,10545
27.84382,10942
27.84953,12009
27.85525,10471
27.86098,10680
27.86670,10676
27.87242,10553
27.87815,9232
27.88387,9890
27.88958,9904
27.89532,11375
27.90103,11081
27.90675,10240
27.91248,11316
27.91820,10425
27.92392,11241
27.92965,12377
27.93537,11406
27.94108,11259
27.94682,10439
27.95253,11040
27.95825,10974
27.96398,10594
27.96970,10941
27.97542,10075
27.98115,10961
27.98687,9532
27.99258,9929
27.99830,10466
28.00403,10537
28.00975,9787
28.01547,10673
28.02120,10320
28.02692,9995
28.03263,10530
28.03837,12618
28.04408,10986
28.04980,10557
28.05553,11174
28.06125,11407
28.06697,10894
28.07270,10508
28.07842,11215
28.08413,11744
28.08987,12186
28.09558,10982
28.10130,9882
28.10703,10435
28.11275,12009
28.11847,10083
28.12420,10760
28.12992,10701
28.13563,10553
28.14137,10568
28.14708,9898
28.15280,10495
28.15853,11436
28.16425,11307
28.16997,10924
28.17570,10018
28.18142,10647
28.18713,9173
28.19285,9541
28.19858,10902
28.20430,11638
28.21002,9773
28.21575,10964
28.22147,9904
28.22718,10341
28.23292,10901
28.23863,9959
28.24435,10064
28.25008,10937
28.25580,10835
28.26152,10958
28.26725,10111
28.27297,10756
28.27868,10541
28.28442,10238
28.29013,10072
28.29585,9768
28.30158,11106
28.30730,8916
28.31302,9866
28.31875,9657
28.32447,10879
28.33018,10922
28.33592,11215
28.34163,9600
28.34735,10821
28.35308,11026
28.35880,9400
28.36452,10863
28.37023,10060
28.37597,10706
28.38168,9406
28.38740,10123
28.39313,9899
28.39885,9864
28.40457,11233
28.41030,9742
28.41602,10713
28.42173,9609
28.42747,9895
28.43318,10446
28.43890,11450
28.44463,10184
28.45035,9686
28.45607,11888
28.46180,10187
28.46752,11053
28.47323,10691
28.47897,8995
28.48468,10650
28.49040,9968
28.49613,10404
28.50185,9953
28.50757,10516
28.51330,9334
28.51902,9465
28.52473,9610
28.53047,9045
28.53618,10395
28.54190,10994
28.54762,11346
28.55335,10791
28.55907,11393
28.56478,10459
28.57052,10341
28.57623,9463
28.58195,10900
28.58768,10333
28.59340,9652
28.59912,9154
28.60485,10510
28.61057,10105
28.61628,10313
28.62202,10203
28.62773,9971
28.63345,10228
28.63918,10190
28.64490,9851
28.65062,10417
28.65635,11148
28.66207,9384
28.66778,10158
28.67352,10854
28.67923,9290
28.68495,10289
28.69068,9959
28.69640,10538
28.70212,10493
28.70785,10249
28.71357,10853
28.71928,9739
28.72500,10632
28.73073,10532
28.73645,9606
28.74217,11091
28.74790,10193
28.75362,9163
28.75933,9207
28.76507,10028
28.77078,10211
28.77650,8970
28.78223,10830
28.78795,10743
28.79367,10212
28.79940,10049
28.80512,11454
28.81083,8679
28.81657,10007
28.82228,10032
28.82800,10754
28.83373,10660
28.83945,9945
28.84517,10284
28.85090,10802
28.85662,9244
28.86233,10314
28.86807,10358
28.87378,9388
28.87950,10442
28.88523,11826
28.89095,10227
28.89667,9397
28.90238,10161
28.90812,11231
28.91383,9332
28.91955,10380
28.92528,10290
28.93100,10209
28.93672,9803
28.94245,10973
28.94817,10075
28.95388,9468
28.95962,9757
28.96533,10575
28.97105,9378
28.97678,10194
28.98250,11441
28.98822,11038
28.99395,9432
28.99967,9457
29.00538,9828
29.01112,10557
29.01683,10818
29.02255,9980
29.02828,9272
29.03400,10372
29.03972,10073
29.04545,10184
29.05117,10596
29.05688,10428
29.06262,11110
29.06833,10414
29.07405,10047
29.07977,9763
29.08550,10191
29.09122,10361
29.09693,9208
29.10267,9700
29.10838,10677
29.11410,10355
29.11983,10627
29.12555,11475
29.13127,10355
29.13700,10103
29.14272,11012
29.14843,9710
29.15417,9829
29.15988,9447
29.16560,9972
29.17133,9548
29.17705,10468
29.18277,10145
29.18850,9613
29.19422,10766
29.19993,10015
29.20567,9576
29.21138,10796
29.21710,11080
29.22283,8665
29.22855,9874
29.23427,10220
29.24000,9105
29.24572,11089
29.25143,9522
29.25717,9170
29.26288,9647
29.26860,9161
29.27432,9777
29.28005,9447
29.28577,10185
29.29148,9492
29.29722,10348
29.30293,10127
29.30865,8963
29.31438,9519
29.32010,11347
29.32582,10428
29.33155,9780
29.33727,11461
29.34298,9083
29.34872,10593
29.35443,9032
29.36015,10166
29.36588,10458
29.37160,9291
29.37732,10116
29.38305,9598
29.38877,9907
29.39448,10009
29.40022,10771
29.40593,9456
29.41165,10102
29.41738,9694
29.42310,10263
29.42882,10161
29.43455,9428
29.44027,10011
29.44598,9508
29.45170,9310
29.45743,9043
29.46315,10342
29.46887,9547
29.47460,9541
29.48032,9636
29.48603,10469
29.49177,9113
29.49748,10082
29.50320,9534
29.50893,9117
29.51465,8555
29.52037,10253
29.52610,8753
29.53182,9516
29.53753,9336
29.54327,9889
29.54898,9181
29.55470,9849
29.56043,9540
29.56615,11236
29.57187,9528
29.57760,9680
29.58332,9151
29.58903,9206
29.59477,9438
29.60048,10573
29.60620,11060
29.61193,8758
29.61765,8874
29.62337,9213
29.62908,10588
29.63482,10276
29.64053,10194
29.64625,9373
29.65198,11313
29.65770,9651
29.66342,9325
29.66915,10488
29.67487,8791
29.68058,11564
29.68632,10111
29.69203,10004
29.69775,10413
29.70348,9219
29.70920,9673
29.71492,9807
29.72065,9106
29.72637,8924
29.73208,10387
29.73782,8922
29.74353,9786
29.74925,9140
29.75498,8986
29.76070,10890
29.76642,10502
29.77215,10317
29.77787,10313
29.78358,8655
29.78932,9263
29.79503,10254
29.80075,9282
29.80647,9978
29.81220,10315
29.81792,10301
29.82363,9322
29.82937,10610
29.83508,9723
29.84080,9080
29.84653,9855
29.85225,10088
29.85797,10312
29.86370,10031
29.86942,10082
29.87513,9871
29.88087,10776
29.88658,9730
29.89230,9959
29.89803,9458
29.90375,8948
29.90947,9428
29.91520,10608
29.92092,8827
29.92663,10559
29.93237,9809
29.93808,10247
29.94380,10742
29.94953,9451
29.95525,9296
29.96097,8921
29.96670,10343
29.97242,9454
29.97813,9878
29.98385,9103
29.98958,9315
