D:\MassHunter\GCMS\1\data\2025\Quentin\QD_250515_MONITORING_H_24h_3uL_inj.D Fri May 16 14:22:29 2025
Start of data points
6.04267,35085
6.04840,29887
6.05412,27439
6.05983,24208
6.06557,23043
6.07128,22505
6.07700,22515
6.08273,30839
6.08845,75365
6.09417,192283
6.09990,374728
6.10562,499394
6.11133,455455
6.11707,305628
6.12278,163460
6.12850,87839
6.13423,65609
6.13995,55609
6.14567,43627
6.15140,34406
6.15712,27963
6.16283,27842
6.16857,29079
6.17428,30425
6.18000,28938
6.18573,26531
6.19145,33014
6.19717,45146
6.20288,47472
6.20862,43965
6.21433,36453
6.22005,29146
6.22578,22700
6.23150,21949
6.23722,21184
6.24295,16904
6.24867,16367
6.25438,13928
6.26012,14577
6.26583,15711
6.27155,15404
6.27728,15936
6.28300,14022
6.28872,11703
6.29445,9701
6.30017,9881
6.30588,11715
6.31162,9949
6.31733,8657
6.32305,8545
6.32878,8813
6.33450,8477
6.34022,6248
6.34595,5641
6.35167,5968
6.35738,6116
6.36312,5389
6.36883,5728
6.37455,6074
6.38027,7125
6.38600,7081
6.39172,6099
6.39743,6128
6.40317,7386
6.40888,6778
6.41460,6660
6.42033,6633
6.42605,7625
6.43177,6581
6.43750,8358
6.44322,6444
6.44893,5854
6.45467,7214
6.46038,5124
6.46610,5536
6.47183,5436
6.47755,5586
6.48327,5543
6.48900,5700
6.49472,6435
6.50043,6748
6.50617,7389
6.51188,8240
6.51760,9064
6.52333,9690
6.52905,8406
6.53477,5861
6.54050,6480
6.54622,6549
6.55193,6526
6.55765,7874
6.56338,7853
6.56910,7825
6.57482,7529
6.58055,7893
6.58627,9506
6.59198,9212
6.59772,9831
6.60343,9870
6.60915,8789
6.61488,8204
6.62060,8848
6.62632,8800
6.63205,7017
6.63777,8679
6.64348,7858
6.64922,7404
6.65493,7152
6.66065,7919
6.66638,7128
6.67210,5989
6.67782,6957
6.68355,5456
6.68927,8035
6.69498,12593
6.70072,21644
6.70643,29250
6.71215,32047
6.71788,26558
6.72360,20306
6.72932,11907
6.73503,9993
6.74077,8498
6.74648,8478
6.75220,10373
6.75793,10274
6.76365,12117
6.76937,10942
6.77510,9178
6.78082,8915
6.78653,10627
6.79227,10549
6.79798,10663
6.80370,11758
6.80943,9907
6.81515,10353
6.82087,8699
6.82660,9291
6.83232,9033
6.83803,9679
6.84377,9522
6.84948,8350
6.85520,5793
6.86093,5871
6.86665,4758
6.87237,4301
6.87810,4441
6.88382,3979
6.88953,5798
6.89527,6109
6.90098,6540
6.90670,4894
6.91243,6055
6.91815,5219
6.92387,5612
6.92958,5209
6.93532,4443
6.94103,3749
6.94675,5088
6.95248,6157
6.95820,7620
6.96392,8896
6.96965,9248
6.97537,8000
6.98108,8271
6.98682,5749
6.99253,5121
6.99825,4001
7.00398,4907
7.00970,4673
7.01542,4777
7.02115,4245
7.02687,3647
7.03258,4434
7.03832,3490
7.04403,3742
7.04975,4445
7.05548,3538
7.06120,5574
7.06692,4741
7.07265,4507
7.07837,4842
7.08408,3640
7.08982,3707
7.09553,2219
7.10125,3630
7.10697,2811
7.11270,3107
7.11842,2871
7.12413,3767
7.12987,3888
7.13558,3441
7.14130,3110
7.14703,2575
7.15275,3481
7.15847,2839
7.16420,3649
7.16992,2817
7.17563,3126
7.18137,3284
7.18708,3765
7.19280,3559
7.19853,3133
7.20425,4123
7.20997,3847
7.21570,4693
7.22142,4577
7.22713,4149
7.23287,3009
7.23858,3039
7.24430,4216
7.25003,3115
7.25575,2963
7.26147,3413
7.26720,4813
7.27292,5298
7.27863,6662
7.28435,6468
7.29008,4548
7.29580,4338
7.30152,3335
7.30725,4222
7.31297,3834
7.31868,3707
7.32442,5107
7.33013,4635
7.33585,3993
7.34158,3920
7.34730,3749
7.35302,2714
7.35875,3001
7.36447,2832
7.37018,2647
7.37592,3173
7.38163,4153
7.38735,2677
7.39308,2996
7.39880,2427
7.40452,3177
7.41025,2909
7.41597,3015
7.42168,2836
7.42742,2758
7.43313,2809
7.43885,2581
7.44458,2592
7.45030,2057
7.45602,3063
7.46173,3687
7.46747,5158
7.47318,6053
7.47890,9509
7.48463,15311
7.49035,19677
7.49607,16112
7.50180,12540
7.50752,8455
7.51323,8095
7.51897,6083
7.52468,6555
7.53040,7369
7.53613,7468
7.54185,6997
7.54757,8663
7.55330,6972
7.55902,5302
7.56473,6129
7.57047,4458
7.57618,5114
7.58190,3343
7.58763,3631
7.59335,3183
7.59907,2797
7.60480,3078
7.61052,3116
7.61623,2824
7.62197,3682
7.62768,3909
7.63340,4087
7.63913,2706
7.64485,2589
7.65057,2638
7.65628,3773
7.66202,3252
7.66773,3523
7.67345,3091
7.67918,3159
7.68490,3013
7.69062,4228
7.69635,4372
7.70207,4160
7.70778,4599
7.71352,4026
7.71923,2655
7.72495,3132
7.73068,2752
7.73640,2490
7.74212,2766
7.74785,2846
7.75357,2955
7.75928,3424
7.76502,3286
7.77073,3872
7.77645,3101
7.78218,2668
7.78790,2451
7.79362,2331
7.79935,2708
7.80507,3687
7.81078,2504
7.81650,2052
7.82223,2311
7.82795,2284
7.83367,2427
7.83940,2111
7.84512,2717
7.85083,1818
7.85657,2462
7.86228,1488
7.86800,1812
7.87373,2317
7.87945,1837
7.88517,1684
7.89090,2002
7.89662,2637
7.90233,1648
7.90807,3261
7.91378,2082
7.91950,1954
7.92523,2789
7.93095,2154
7.93667,2979
7.94240,2099
7.94812,1532
7.95383,2735
7.95957,3005
7.96528,1886
7.97100,1923
7.97673,1782
7.98245,2375
7.98817,2479
7.99390,2637
7.99962,2051
8.00533,2134
8.01105,2548
8.01678,3166
8.02250,2234
8.02822,3083
8.03395,3288
8.03967,2321
8.04538,3168
8.05112,1643
8.05683,3185
8.06255,2793
8.06828,3441
8.07400,3046
8.07972,2265
8.08545,2105
8.09117,3254
8.09688,2572
8.10262,3230
8.10833,2190
8.11405,2347
8.11978,2910
8.12550,2768
8.13122,3191
8.13695,3715
8.14267,3527
8.14838,4716
8.15412,7345
8.15983,11027
8.16555,15129
8.17128,17629
8.17700,16656
8.18272,14825
8.18843,14266
8.19417,9706
8.19988,6855
8.20560,4382
8.21133,4929
8.21705,3689
8.22277,2850
8.22850,2851
8.23422,3421
8.23993,2795
8.24567,2023
8.25138,2388
8.25710,2743
8.26283,2408
8.26855,2728
8.27427,3232
8.28000,4246
8.28572,4665
8.29143,4552
8.29717,3746
8.30288,4107
8.30860,4129
8.31433,4196
8.32005,4088
8.32577,4182
8.33150,3828
8.33722,3248
8.34293,3013
8.34867,3220
8.35438,3434
8.36010,4374
8.36582,3798
8.37155,4248
8.37727,4247
8.38298,4385
8.38872,4272
8.39443,4019
8.40015,4183
8.40588,3076
8.41160,3769
8.41732,4203
8.42305,3573
8.42877,3710
8.43448,4397
8.44022,4038
8.44593,4135
8.45165,4653
8.45738,3659
8.46310,4140
8.46882,3966
8.47455,3158
8.48027,4239
8.48598,3443
8.49172,3277
8.49743,4227
8.50315,4216
8.50888,4686
8.51460,3632
8.52032,2457
8.52605,3159
8.53177,2930
8.53748,3599
8.54320,3589
8.54893,4546
8.55465,4652
8.56037,4348
8.56610,4122
8.57182,4175
8.57753,3089
8.58327,2070
8.58898,3330
8.59470,2057
8.60043,2871
8.60615,1877
8.61187,2264
8.61760,2536
8.62332,2573
8.62903,2114
8.63477,2261
8.64048,2476
8.64620,2815
8.65193,1959
8.65765,2796
8.66337,2818
8.66910,2563
8.67482,1849
8.68053,2501
8.68627,1823
8.69198,2002
8.69770,1536
8.70343,2486
8.70915,2020
8.71487,2282
8.72060,2068
8.72632,2351
8.73203,3081
8.73775,1718
8.74348,2273
8.74920,3423
8.75492,5071
8.76065,9837
8.76637,12475
8.77208,11388
8.77782,10874
8.78353,7579
8.78925,5857
8.79498,4288
8.80070,3989
8.80642,3038
8.81215,4464
8.81787,4194
8.82358,4373
8.82932,4737
8.83503,4359
8.84075,3734
8.84648,2808
8.85220,2382
8.85792,2961
8.86365,2190
8.86937,2288
8.87508,2684
8.88082,2372
8.88653,3918
8.89225,3734
8.89798,5378
8.90370,6162
8.90942,3782
8.91513,4212
8.92087,2489
8.92658,2379
8.93230,2080
8.93803,2803
8.94375,2044
8.94947,1923
8.95520,1993
8.96092,2047
8.96663,2004
8.97237,1862
8.97808,2073
8.98380,1681
8.98953,1935
8.99525,1853
9.00097,1762
9.00670,1982
9.01242,2089
9.01813,2840
9.02387,3114
9.02958,3727
9.03530,4499
9.04103,4131
9.04675,2982
9.05247,2936
9.05820,3047
9.06392,2146
9.06963,2740
9.07537,2498
9.08108,2205
9.08680,2764
9.09252,2596
9.09825,2337
9.10397,1989
9.10968,2664
9.11542,2147
9.12113,2518
9.12685,2317
9.13258,2163
9.13830,3822
9.14402,4054
9.14975,5570
9.15547,6713
9.16118,6875
9.16692,6532
9.17263,5382
9.17835,4526
9.18408,3302
9.18980,3630
9.19552,4725
9.20125,5541
9.20697,7893
9.21268,11603
9.21842,10448
9.22413,9891
9.22985,7440
9.23558,8351
9.24130,19472
9.24702,44084
9.25275,98355
9.25847,170559
9.26418,250161
9.26990,292076
9.27563,254377
9.28135,180169
9.28707,112142
9.29280,70242
9.29852,47859
9.30423,35508
9.30997,27956
9.31568,22395
9.32140,17957
9.32713,14432
9.33285,12552
9.33857,10433
9.34430,10313
9.35002,9441
9.35573,8835
9.36147,7583
9.36718,7982
9.37290,7178
9.37863,8020
9.38435,6639
9.39007,5217
9.39580,5855
9.40152,4933
9.40723,5337
9.41297,5618
9.41868,5309
9.42440,5176
9.43013,6013
9.43585,5261
9.44157,6355
9.44730,5062
9.45302,5715
9.45873,4697
9.46445,4401
9.47018,4654
9.47590,3769
9.48162,4941
9.48735,4304
9.49307,3042
9.49878,3973
9.50452,3991
9.51023,2681
9.51595,4100
9.52168,2844
9.52740,3690
9.53312,3859
9.53885,3516
9.54457,3780
9.55028,2964
9.55602,3969
9.56173,3356
9.56745,3575
9.57318,3927
9.57890,4252
9.58462,5222
9.59035,5830
9.59607,3955
9.60178,3075
9.60752,3635
9.61323,2365
9.61895,2826
9.62467,2749
9.63040,2146
9.63612,3352
9.64183,2679
9.64757,3185
9.65328,2724
9.65900,3166
9.66473,2309
9.67045,2295
9.67617,2768
9.68190,2596
9.68762,2971
9.69333,2297
9.69907,2470
9.70478,1764
9.71050,2821
9.71623,3469
9.72195,2578
9.72767,2988
9.73340,2609
9.73912,2668
9.74483,3388
9.75057,2843
9.75628,2782
9.76200,2463
9.76773,2995
9.77345,2755
9.77917,1686
9.78490,1823
9.79062,2825
9.79633,2489
9.80207,2434
9.80778,3707
9.81350,2794
9.81922,2540
9.82495,2321
9.83067,2533
9.83638,2444
9.84212,2034
9.84783,2123
9.85355,2440
9.85928,1648
9.86500,1887
9.87072,2155
9.87645,2896
9.88217,2309
9.88788,1966
9.89362,1858
9.89933,3198
9.90505,3113
9.91078,4924
9.91650,10305
9.92222,18182
9.92795,34062
9.93367,57883
9.93938,94503
9.94512,116080
9.95083,112323
9.95655,79688
9.96228,42029
9.96800,19392
9.97372,7719
9.97945,4076
9.98517,3703
9.99088,2925
9.99660,1643
10.00233,2254
10.00805,1908
10.01377,2113
10.01950,1947
10.02522,2711
10.03093,2377
10.03667,2349
10.04238,2495
10.04810,2110
10.05383,2233
10.05955,1872
10.06527,1413
10.07100,2099
10.07672,3332
10.08243,2701
10.08817,2671
10.09388,2810
10.09960,1990
10.10533,2599
10.11105,3222
10.11677,2888
10.12250,2213
10.12822,2583
10.13393,2623
10.13967,1925
10.14538,3112
10.15110,2061
10.15683,3088
10.16255,3304
10.16827,2596
10.17398,2338
10.17972,3143
10.18543,3477
10.19115,2693
10.19688,2861
10.20260,2536
10.20832,2420
10.21405,2540
10.21977,4126
10.22548,2513
10.23122,2705
10.23693,3066
10.24265,3019
10.24838,2458
10.25410,2203
10.25982,2608
10.26555,2315
10.27127,2546
10.27698,2167
10.28272,2553
10.28843,2152
10.29415,2818
10.29988,2084
10.30560,1954
10.31132,2663
10.31705,2322
10.32277,3608
10.32848,2736
10.33422,1794
10.33993,2555
10.34565,2495
10.35137,2593
10.35710,1824
10.36282,2357
10.36853,2667
10.37427,2546
10.37998,2227
10.38570,1910
10.39143,2042
10.39715,2651
10.40287,2180
10.40860,2235
10.41432,1911
10.42003,2353
10.42577,3142
10.43148,2638
10.43720,2455
10.44293,3254
10.44865,2853
10.45437,2142
10.46010,2654
10.46582,2823
10.47153,2666
10.47727,2232
10.48298,3032
10.48870,2567
10.49443,2695
10.50015,2878
10.50587,2164
10.51160,2458
10.51732,2241
10.52303,2471
10.52877,2024
10.53448,2749
10.54020,2746
10.54592,2529
10.55165,2321
10.55737,3215
10.56308,3219
10.56882,2884
10.57453,2529
10.58025,2560
10.58598,1810
10.59170,2571
10.59742,2350
10.60315,2641
10.60887,2097
10.61458,2006
10.62032,2405
10.62603,2437
10.63175,1787
10.63748,1634
10.64320,2015
10.64892,2791
10.65465,2388
10.66037,2529
10.66608,2980
10.67182,1955
10.67753,2603
10.68325,2919
10.68898,2232
10.69470,2089
10.70042,2273
10.70615,2288
10.71187,2099
10.71758,2680
10.72330,2517
10.72903,2372
10.73475,1890
10.74047,2058
10.74620,1803
10.75192,1961
10.75763,2006
10.76337,1669
10.76908,1875
10.77480,1611
10.78053,1861
10.78625,3061
10.79197,2181
10.79770,3003
10.80342,1664
10.80913,2210
10.81487,1661
10.82058,2311
10.82630,1661
10.83203,2688
10.83775,2155
10.84347,2134
10.84920,2266
10.85492,2285
10.86063,1926
10.86637,2493
10.87208,1990
10.87780,1724
10.88353,2755
10.88925,2846
10.89497,2156
10.90068,1742
10.90642,1987
10.91213,2954
10.91785,3507
10.92358,3836
10.92930,3868
10.93502,3948
10.94075,3302
10.94647,2062
10.95218,2318
10.95792,1939
10.96363,2280
10.96935,3388
10.97508,4461
10.98080,6957
10.98652,11930
10.99225,15880
10.99797,14185
11.00368,12968
11.00942,7801
11.01513,4935
11.02085,4108
11.02658,3020
11.03230,2304
11.03802,2362
11.04375,2297
11.04947,2958
11.05518,2477
11.06092,2623
11.06663,3230
11.07235,2842
11.07807,3074
11.08380,2755
11.08952,3185
11.09523,2358
11.10097,3068
11.10668,3161
11.11240,2334
11.11813,2265
11.12385,1993
11.12957,2505
11.13530,2456
11.14102,2808
11.14673,2060
11.15247,2484
11.15818,2669
11.16390,2272
11.16963,2215
11.17535,2025
11.18107,2145
11.18680,2639
11.19252,2826
11.19823,2708
11.20397,2717
11.20968,2487
11.21540,2784
11.22113,2508
11.22685,1542
11.23257,3185
11.23830,1933
11.24402,2343
11.24973,1760
11.25545,2344
11.26118,2548
11.26690,2842
11.27262,1938
11.27835,2438
11.28407,2731
11.28978,3265
11.29552,1901
11.30123,2669
11.30695,2794
11.31268,1647
11.31840,1391
11.32412,1409
11.32985,1982
11.33557,2021
11.34128,2066
11.34702,2019
11.35273,2721
11.35845,2177
11.36418,1536
11.36990,1987
11.37562,1678
11.38135,2161
11.38707,2283
11.39278,1911
11.39852,1981
11.40423,2364
11.40995,1954
11.41568,1531
11.42140,2171
11.42712,2142
11.43283,2442
11.43857,3443
11.44428,4092
11.45000,4928
11.45573,5085
11.46145,3903
11.46717,3541
11.47290,3020
11.47862,2190
11.48433,2293
11.49007,2447
11.49578,1995
11.50150,1864
11.50723,1644
11.51295,1804
11.51867,2326
11.52440,2197
11.53012,1229
11.53583,1799
11.54157,1934
11.54728,1625
11.55300,1384
11.55873,2101
11.56445,2075
11.57017,1708
11.57590,2549
11.58162,1731
11.58733,1934
11.59307,2312
11.59878,1858
11.60450,2410
11.61023,2428
11.61595,2851
11.62167,2705
11.62738,1918
11.63312,2669
11.63883,1994
11.64455,1662
11.65028,1849
11.65600,1910
11.66172,1703
11.66745,2162
11.67317,1737
11.67888,2415
11.68462,1847
11.69033,2423
11.69605,1682
11.70178,2518
11.70750,1519
11.71322,2088
11.71895,2486
11.72467,2618
11.73038,2247
11.73612,2043
11.74183,1960
11.74755,2391
11.75328,1618
11.75900,2005
11.76472,2326
11.77045,2118
11.77617,1670
11.78188,3127
11.78762,4791
11.79333,4177
11.79905,5153
11.80477,3964
11.81050,3345
11.81622,2211
11.82193,1796
11.82767,2482
11.83338,2338
11.83910,1820
11.84483,2347
11.85055,2764
11.85627,2058
11.86200,3030
11.86772,2206
11.87343,2153
11.87917,2354
11.88488,1774
11.89060,2577
11.89633,1918
11.90205,2177
11.90777,1693
11.91350,1937
11.91922,1711
11.92493,1696
11.93067,2075
11.93638,2190
11.94210,2213
11.94783,1813
11.95355,2464
11.95927,2845
11.96500,2956
11.97072,5075
11.97643,6391
11.98215,7258
11.98788,5389
11.99360,4122
11.99932,2893
12.00505,2227
12.01077,1720
12.01648,1251
12.02222,2210
12.02793,2469
12.03365,2330
12.03938,1554
12.04510,1797
12.05082,1981
12.05655,1841
12.06227,2104
12.06798,2035
12.07372,1537
12.07943,2051
12.08515,2184
12.09088,1226
12.09660,2303
12.10232,2031
12.10805,1456
12.11377,1940
12.11948,2050
12.12522,2304
12.13093,2065
12.13665,1701
12.14238,3126
12.14810,4447
12.15382,6106
12.15953,11912
12.16527,25025
12.17098,45113
12.17670,63401
12.18243,71528
12.18815,58525
12.19387,33864
12.19960,14941
12.20532,6982
12.21103,3718
12.21677,2725
12.22248,2656
12.22820,2481
12.23393,2002
12.23965,2057
12.24537,2557
12.25110,2216
12.25682,2018
12.26253,2400
12.26827,1987
12.27398,2461
12.27970,1857
12.28543,2710
12.29115,2069
12.29687,2110
12.30260,2320
12.30832,1373
12.31403,1133
12.31977,1530
12.32548,1958
12.33120,1737
12.33693,1474
12.34265,2060
12.34837,2280
12.35408,2265
12.35982,2154
12.36553,3072
12.37125,2916
12.37698,2827
12.38270,3082
12.38842,2487
12.39415,1481
12.39987,2043
12.40558,2295
12.41132,1357
12.41703,1466
12.42275,2134
12.42848,1478
12.43420,2184
12.43992,1875
12.44565,2513
12.45137,2327
12.45708,1711
12.46282,1863
12.46853,1755
12.47425,1308
12.47998,2448
12.48570,1680
12.49142,2184
12.49715,2733
12.50287,2188
12.50858,1896
12.51432,2862
12.52003,2037
12.52575,1912
12.53147,1640
12.53720,1781
12.54292,2359
12.54863,1919
12.55437,1879
12.56008,2135
12.56580,1729
12.57153,1571
12.57725,1953
12.58297,2623
12.58870,2106
12.59442,1868
12.60013,1909
12.60587,1808
12.61158,2293
12.61730,1494
12.62303,1838
12.62875,2399
12.63447,2260
12.64020,1398
12.64592,2014
12.65163,2198
12.65737,1886
12.66308,2055
12.66880,1995
12.67453,2362
12.68025,1758
12.68597,1882
12.69170,2563
12.69742,3583
12.70313,3741
12.70885,5749
12.71458,5751
12.72030,4736
12.72602,3216
12.73175,2288
12.73747,2337
12.74318,2728
12.74892,2241
12.75463,1647
12.76035,2419
12.76608,2910
12.77180,2088
12.77752,1366
12.78325,2599
12.78897,2531
12.79468,1759
12.80042,1986
12.80613,2456
12.81185,2486
12.81758,2858
12.82330,3199
12.82902,2987
12.83475,2849
12.84047,2791
12.84618,2355
12.85192,2252
12.85763,1728
12.86335,2549
12.86908,2299
12.87480,3194
12.88052,2773
12.88623,2889
12.89197,2757
12.89768,2647
12.90340,2544
12.90913,2239
12.91485,1902
12.92057,2655
12.92630,2391
12.93202,2997
12.93773,2847
12.94347,2702
12.94918,3294
12.95490,3559
12.96063,2611
12.96635,2738
12.97207,2169
12.97780,1669
12.98352,2648
12.98923,2103
12.99497,2386
13.00068,2172
13.00640,1688
13.01213,2220
13.01785,1901
13.02357,1280
13.02930,2056
13.03502,1289
13.04073,3029
13.04647,2381
13.05218,1713
13.05790,2523
13.06363,3924
13.06935,3358
13.07507,2719
13.08078,2657
13.08652,2849
13.09223,2524
13.09795,3768
13.10368,2843
13.10940,3018
13.11512,2033
13.12085,1928
13.12657,1454
13.13228,2537
13.13802,2253
13.14373,2284
13.14945,1875
13.15518,2750
13.16090,1663
13.16662,2463
13.17235,1647
13.17807,2897
13.18378,1240
13.18952,2778
13.19523,2251
13.20095,2540
13.20668,1989
13.21240,2050
13.21812,2059
13.22385,1884
13.22957,3417
13.23528,2869
13.24100,4001
13.24673,2994
13.25245,2697
13.25817,2559
13.26390,2493
13.26962,2477
13.27533,1752
13.28107,2402
13.28678,2847
13.29250,1729
13.29823,2649
13.30395,1528
13.30967,1320
13.31540,1557
13.32112,1691
13.32683,1888
13.33257,1385
13.33828,2114
13.34400,2272
13.34973,2066
13.35545,1839
13.36117,1732
13.36690,2518
13.37262,2468
13.37833,3510
13.38407,4337
13.38978,4355
13.39550,4237
13.40123,3078
13.40695,3028
13.41267,2142
13.41840,1606
13.42412,1920
13.42983,1726
13.43555,2672
13.44128,2519
13.44700,3218
13.45272,2275
13.45845,2777
13.46417,3193
13.46988,3486
13.47562,5556
13.48133,7046
13.48705,6011
13.49278,6013
13.49850,5921
13.50422,4863
13.50995,5271
13.51567,4272
13.52138,4101
13.52712,3158
13.53283,3390
13.53855,3491
13.54428,3329
13.55000,2813
13.55572,3478
13.56145,2776
13.56717,3493
13.57288,3249
13.57862,2041
13.58433,2074
13.59005,2815
13.59578,2804
13.60150,2566
13.60722,2076
13.61293,3336
13.61867,2631
13.62438,2466
13.63010,1959
13.63583,1947
13.64155,1709
13.64727,2362
13.65300,1304
13.65872,2453
13.66443,2897
13.67017,2440
13.67588,2488
13.68160,2407
13.68733,2780
13.69305,3037
13.69877,2559
13.70450,2915
13.71022,2796
13.71593,2847
13.72167,3063
13.72738,4627
13.73310,5585
13.73883,5024
13.74455,5414
13.75027,4521
13.75600,3343
13.76172,3992
13.76743,3178
13.77317,3557
13.77888,2970
13.78460,3140
13.79032,3411
13.79605,3687
13.80177,3434
13.80748,3641
13.81322,4497
13.81893,11784
13.82465,21687
13.83038,41068
13.83610,61912
13.84182,80980
13.84755,85901
13.85327,66980
13.85898,48553
13.86472,39906
13.87043,57833
13.87615,83330
13.88188,104407
13.88760,97746
13.89332,69988
13.89905,37989
13.90477,21214
13.91048,10124
13.91622,8503
13.92193,6666
13.92765,5610
13.93338,4949
13.93910,5257
13.94482,4690
13.95055,4635
13.95627,4608
13.96198,4349
13.96770,4530
13.97343,4020
13.97915,4077
13.98487,4281
13.99060,4709
13.99632,4335
14.00203,4239
14.00777,2723
14.01348,3768
14.01920,4357
14.02493,3154
14.03065,3237
14.03637,3299
14.04210,3286
14.04782,3003
14.05353,2440
14.05927,3305
14.06498,3566
14.07070,3525
14.07643,2687
14.08215,2962
14.08787,2986
14.09360,3527
14.09932,3065
14.10503,3324
14.11077,2683
14.11648,2716
14.12220,2945
14.12793,3319
14.13365,3207
14.13937,2341
14.14510,2816
14.15082,3955
14.15653,3526
14.16225,5179
14.16798,7929
14.17370,12246
14.17942,17558
14.18515,20744
14.19087,20244
14.19658,12579
14.20232,7617
14.20803,3541
14.21375,3073
14.21948,2603
14.22520,3477
14.23092,2667
14.23665,2385
14.24237,1877
14.24808,2542
14.25382,2750
14.25953,2608
14.26525,2704
14.27098,2486
14.27670,2701
14.28242,2299
14.28815,2849
14.29387,2469
14.29958,2330
14.30532,2407
14.31103,2616
14.31675,1794
14.32248,3092
14.32820,2423
14.33392,2536
14.33963,2303
14.34537,2703
14.35108,2589
14.35680,2051
14.36253,2373
14.36825,2639
14.37397,2410
14.37970,2884
14.38542,2415
14.39113,2428
14.39687,3723
14.40258,4195
14.40830,3302
14.41403,2924
14.41975,3784
14.42547,2476
14.43120,2186
14.43692,2690
14.44263,3058
14.44837,2838
14.45408,3760
14.45980,3760
14.46553,4349
14.47125,4634
14.47697,4699
14.48270,2556
14.48842,2488
14.49413,2636
14.49987,2247
14.50558,3212
14.51130,2803
14.51702,3986
14.52275,3703
14.52847,3973
14.53418,4462
14.53992,3728
14.54563,1858
14.55135,2074
14.55708,2673
14.56280,1891
14.56852,2410
14.57425,2139
14.57997,1775
14.58568,2273
14.59142,3077
14.59713,3685
14.60285,3201
14.60858,2943
14.61430,2365
14.62002,2752
14.62575,2562
14.63147,2302
14.63718,2203
14.64292,2327
14.64863,1978
14.65435,2310
14.66008,2069
14.66580,2842
14.67152,3024
14.67725,3742
14.68297,3017
14.68868,2504
14.69440,2762
14.70013,2655
14.70585,4085
14.71157,4948
14.71730,4120
14.72302,4187
14.72873,4031
14.73447,3189
14.74018,2846
14.74590,1563
14.75163,2626
14.75735,2507
14.76307,2805
14.76880,3460
14.77452,3188
14.78023,2439
14.78597,2502
14.79168,2069
14.79740,2578
14.80313,2273
14.80885,1870
14.81457,2526
14.82030,2901
14.82602,3076
14.83173,2110
14.83747,1889
14.84318,2041
14.84890,3336
14.85463,3665
14.86035,4981
14.86607,4886
14.87178,5049
14.87752,5362
14.88323,5503
14.88895,6306
14.89468,5160
14.90040,4701
14.90612,3837
14.91185,4256
14.91757,3099
14.92328,4931
14.92902,4623
14.93473,4627
14.94045,3258
14.94618,3037
14.95190,2960
14.95762,3055
14.96335,5716
14.96907,7040
14.97478,7325
14.98052,6890
14.98623,3097
14.99195,2970
14.99768,2989
15.00340,2704
15.00912,2890
15.01485,2703
15.02057,3217
15.02628,3771
15.03202,3521
15.03773,3317
15.04345,2972
15.04917,2243
15.05490,2831
15.06062,2388
15.06633,1821
15.07207,2323
15.07778,2873
15.08350,2920
15.08923,2172
15.09495,985
15.10067,3326
15.10640,2534
15.11212,1804
15.11783,2405
15.12357,2742
15.12928,2931
15.13500,3546
15.14073,3438
15.14645,4857
15.15217,4487
15.15790,3208
15.16362,2839
15.16933,2566
15.17507,2935
15.18078,2536
15.18650,2172
15.19223,2152
15.19795,2712
15.20367,1987
15.20940,2942
15.21512,2302
15.22083,1929
15.22657,2436
15.23228,2166
15.23800,3701
15.24372,2684
15.24945,4077
15.25517,2550
15.26088,1831
15.26662,2430
15.27233,1458
15.27805,2507
15.28378,2358
15.28950,3116
15.29522,2490
15.30095,2939
15.30667,3156
15.31238,2671
15.31812,2882
15.32383,2250
15.32955,2605
15.33528,2823
15.34100,3328
15.34672,2827
15.35245,2523
15.35817,1661
15.36388,1443
15.36962,2091
15.37533,2686
15.38105,2973
15.38678,2529
15.39250,3332
15.39822,2437
15.40395,1961
15.40967,2118
15.41538,2731
15.42110,2014
15.42683,2179
15.43255,2722
15.43827,2495
15.44400,2492
15.44972,2936
15.45543,1541
15.46117,2785
15.46688,2787
15.47260,1900
15.47833,2397
15.48405,2177
15.48977,2080
15.49550,2175
15.50122,3030
15.50693,2304
15.51267,1779
15.51838,1425
15.52410,2200
15.52983,2485
15.53555,2568
15.54127,1226
15.54700,2746
15.55272,2461
15.55843,2588
15.56417,1913
15.56988,2387
15.57560,2479
15.58133,2301
15.58705,2367
15.59277,2683
15.59848,2562
15.60422,3527
15.60993,3123
15.61565,3377
15.62138,2398
15.62710,2760
15.63282,3243
15.63855,2634
15.64427,2187
15.64998,2085
15.65572,2240
15.66143,2321
15.66715,2094
15.67288,2628
15.67860,2354
15.68432,2148
15.69005,2086
15.69577,2684
15.70148,2487
15.70722,2381
15.71293,2548
15.71865,2496
15.72438,1995
15.73010,2921
15.73582,1873
15.74155,2669
15.74727,2205
15.75298,2030
15.75872,1753
15.76443,1795
15.77015,1902
15.77587,2345
15.78160,1538
15.78732,1957
15.79303,1642
15.79877,2358
15.80448,1945
15.81020,1718
15.81593,1669
15.82165,2589
15.82737,2143
15.83310,2512
15.83882,1735
15.84453,2015
15.85027,2043
15.85598,1955
15.86170,2541
15.86743,1959
15.87315,2687
15.87887,2611
15.88460,1967
15.89032,1333
15.89603,2213
15.90177,3128
15.90748,3169
15.91320,3980
15.91893,5230
15.92465,5842
15.93037,4851
15.93610,3750
15.94182,3316
15.94753,1682
15.95325,1445
15.95898,2421
15.96470,2172
15.97042,2156
15.97615,3046
15.98187,2237
15.98758,2152
15.99332,2049
15.99903,2103
16.00475,2072
16.01048,2149
16.01620,2097
16.02192,1900
16.02765,1708
16.03337,2153
16.03908,2094
16.04482,1501
16.05053,1451
16.05625,1728
16.06198,2484
16.06770,2084
16.07342,2594
16.07915,2097
16.08487,1559
16.09058,1744
16.09632,2872
16.10203,2757
16.10775,2967
16.11348,1583
16.11920,1697
16.12492,2854
16.13065,2431
16.13637,1839
16.14208,1791
16.14780,1891
16.15353,2203
16.15925,1731
16.16497,2156
16.17070,2481
16.17642,2913
16.18213,2558
16.18787,1923
16.19358,2469
16.19930,2638
16.20503,2260
16.21075,1879
16.21647,2088
16.22220,2034
16.22792,1888
16.23363,1736
16.23937,2844
16.24508,1679
16.25080,2240
16.25653,2019
16.26225,2790
16.26797,1942
16.27370,2074
16.27942,2595
16.28513,1798
16.29087,2024
16.29658,1803
16.30230,1970
16.30803,1957
16.31375,2394
16.31947,2953
16.32518,2275
16.33092,1729
16.33663,2037
16.34235,3305
16.34808,2548
16.35380,2662
16.35952,2731
16.36525,2066
16.37097,2866
16.37668,2467
16.38242,2644
16.38813,2293
16.39385,2937
16.39958,2889
16.40530,2957
16.41102,1869
16.41675,2592
16.42247,2879
16.42818,2106
16.43392,2690
16.43963,3546
16.44535,2634
16.45108,2093
16.45680,1881
16.46252,2504
16.46825,1895
16.47397,2146
16.47968,2338
16.48542,2145
16.49113,2229
16.49685,1970
16.50257,2229
16.50830,2264
16.51402,2269
16.51973,2605
16.52547,2083
16.53118,1980
16.53690,1633
16.54263,2571
16.54835,2553
16.55407,2250
16.55980,2517
16.56552,2707
16.57123,2717
16.57697,2433
16.58268,2295
16.58840,2028
16.59413,2278
16.59985,2372
16.60557,2624
16.61130,1988
16.61702,2634
16.62273,2207
16.62847,2370
16.63418,2578
16.63990,2433
16.64563,2194
16.65135,2770
16.65707,2673
16.66280,2749
16.66852,2274
16.67423,2074
16.67995,2432
16.68568,2570
16.69140,2681
16.69712,2863
16.70285,2336
16.70857,2546
16.71428,2056
16.72002,1844
16.72573,2381
16.73145,2487
16.73718,2169
16.74290,2552
16.74862,2438
16.75435,1956
16.76007,2371
16.76578,1747
16.77152,2486
16.77723,2867
16.78295,2581
16.78868,2226
16.79440,2839
16.80012,2274
16.80585,1783
16.81157,3360
16.81728,3307
16.82302,1945
16.82873,2300
16.83445,2695
16.84018,2709
16.84590,1922
16.85162,2033
16.85733,2199
16.86307,2121
16.86878,1621
16.87450,3338
16.88023,2626
16.88595,3421
16.89167,2730
16.89740,3244
16.90312,2586
16.90883,2409
16.91457,2541
16.92028,2779
16.92600,2679
16.93173,2928
16.93745,2446
16.94317,2417
16.94890,1870
16.95462,2431
16.96033,2379
16.96607,2922
16.97178,2715
16.97750,2450
16.98323,2000
16.98895,1880
16.99467,1997
17.00040,1999
17.00612,2646
17.01183,2754
17.01757,2022
17.02328,2277
17.02900,1941
17.03472,1570
17.04045,2315
17.04617,2281
17.05188,2807
17.05762,2691
17.06333,2854
17.06905,1544
17.07478,2562
17.08050,3143
17.08622,1945
17.09195,2753
17.09767,2567
17.10338,2796
17.10912,3118
17.11483,2043
17.12055,1763
17.12628,2159
17.13200,2304
17.13772,1974
17.14345,2088
17.14917,2811
17.15488,1959
17.16062,3091
17.16633,2549
17.17205,2698
17.17778,2656
17.18350,2545
17.18922,2399
17.19495,2141
17.20067,2292
17.20638,2153
17.21212,2790
17.21783,2514
17.22355,2741
17.22927,2847
17.23500,2746
17.24072,2518
17.24643,2940
17.25217,2320
17.25788,2363
17.26360,2516
17.26933,2675
17.27505,2765
17.28077,2634
17.28650,2041
17.29222,3198
17.29793,1646
17.30367,2731
17.30938,1721
17.31510,2723
17.32083,2243
17.32655,2835
17.33227,3520
17.33800,2773
17.34372,4586
17.34943,2160
17.35517,2242
17.36088,2993
17.36660,2970
17.37233,2724
17.37805,1819
17.38377,2713
17.38950,2488
17.39522,2857
17.40093,3064
17.40665,3196
17.41238,3090
17.41810,2178
17.42382,2466
17.42955,2467
17.43527,2189
17.44098,2929
17.44672,2977
17.45243,3035
17.45815,3799
17.46388,3932
17.46960,4883
17.47532,5444
17.48105,4649
17.48677,3327
17.49248,2881
17.49822,2771
17.50393,2779
17.50965,2463
17.51538,2777
17.52110,2721
17.52682,2651
17.53255,2411
17.53827,2150
17.54398,2834
17.54972,2854
17.55543,3128
17.56115,3210
17.56688,3034
17.57260,3582
17.57832,3135
17.58403,2891
17.58977,3376
17.59548,3301
17.60120,2370
17.60693,2618
17.61265,3110
17.61837,3694
17.62410,3693
17.62982,3549
17.63553,3498
17.64127,3474
17.64698,3799
17.65270,4776
17.65843,3825
17.66415,3406
17.66987,4029
17.67560,3503
17.68132,4196
17.68703,3486
17.69277,4532
17.69848,4141
17.70420,4003
17.70993,5435
17.71565,4465
17.72137,4571
17.72710,4940
17.73282,5380
17.73853,5469
17.74427,4420
17.74998,5305
17.75570,4889
17.76142,5438
17.76715,5165
17.77287,5078
17.77858,6275
17.78432,6426
17.79003,6677
17.79575,6634
17.80148,6139
17.80720,7156
17.81292,6791
17.81865,7617
17.82437,8096
17.83008,9105
17.83582,8951
17.84153,8364
17.84725,10776
17.85298,9837
17.85870,12383
17.86442,10318
17.87015,10390
17.87587,10863
17.88158,11314
17.88732,10170
17.89303,12557
17.89875,12279
17.90448,11457
17.91020,11952
17.91592,15081
17.92165,12605
17.92737,14086
17.93308,16118
17.93882,14715
17.94453,17273
17.95025,16724
17.95597,18068
17.96170,20077
17.96742,19364
17.97313,18956
17.97887,19541
17.98458,20600
17.99030,20319
17.99603,22059
18.00175,22251
18.00747,20329
18.01320,20826
18.01892,21009
18.02463,24138
18.03037,22894
18.03608,24012
18.04180,25258
18.04753,24879
18.05325,25384
18.05897,27812
18.06470,33067
18.07042,34880
18.07613,37933
18.08187,36355
18.08758,39893
18.09330,38306
18.09903,38589
18.10475,38443
18.11047,39245
18.11618,35487
18.12192,35175
18.12763,35076
18.13335,33327
18.13908,33609
18.14480,31425
18.15052,31667
18.15625,30156
18.16197,29454
18.16768,28039
18.17342,28396
18.17913,28528
18.18485,28388
18.19058,27452
18.19630,26535
18.20202,28705
18.20775,29615
18.21347,28751
18.21918,28797
18.22492,27382
18.23063,26740
18.23635,25656
18.24208,23622
18.24780,25127
18.25352,24471
18.25925,23100
18.26497,23043
18.27068,20612
18.27642,18092
18.28213,14523
18.28785,14004
18.29358,12817
18.29930,13869
18.30502,11861
18.31073,11910
18.31647,10518
18.32218,10409
18.32790,9546
18.33363,10898
18.33935,11533
18.34507,11940
18.35080,10505
18.35652,8770
18.36223,9553
18.36797,10801
18.37368,10433
18.37940,9506
18.38513,7551
18.39085,9038
18.39657,8138
18.40230,7460
18.40802,7422
18.41373,7342
18.41947,6078
18.42518,7208
18.43090,7388
18.43663,6542
18.44235,6575
18.44807,6656
18.45380,5540
18.45952,5497
18.46523,5216
18.47097,4695
18.47668,4372
18.48240,4299
18.48812,3945
18.49385,3873
18.49957,5038
18.50528,4731
18.51102,4996
18.51673,5528
18.52245,5152
18.52818,5256
18.53390,4254
18.53962,4555
18.54535,5465
18.55107,4637
18.55678,5381
18.56252,6711
18.56823,6205
18.57395,6385
18.57968,6138
18.58540,5780
18.59112,5410
18.59685,4749
18.60257,5014
18.60828,5257
18.61402,4448
18.61973,3552
18.62545,3329
18.63118,4163
18.63690,3999
18.64262,4758
18.64835,4103
18.65407,4614
18.65978,3978
18.66550,4728
18.67123,4470
18.67695,4045
18.68267,3986
18.68840,3579
18.69412,3660
18.69983,4465
18.70557,4698
18.71128,4951
18.71700,4804
18.72273,3680
18.72845,4214
18.73417,4047
18.73990,3783
18.74562,4736
18.75133,3810
18.75707,4011
18.76278,5142
18.76850,4407
18.77423,5834
18.77995,6828
18.78567,11345
18.79140,20253
18.79712,35855
18.80283,52282
18.80857,54667
18.81428,45031
18.82000,35393
18.82573,22581
18.83145,13432
18.83717,11406
18.84288,9955
18.84862,9757
18.85433,7538
18.86005,8063
18.86578,7483
18.87150,7424
18.87722,9138
18.88295,10025
18.88867,9520
18.89438,10445
18.90012,10898
18.90583,9608
18.91155,8638
18.91728,7177
18.92300,7430
18.92872,7524
18.93445,5668
18.94017,7025
18.94588,6693
18.95162,7737
18.95733,7815
18.96305,7154
18.96878,8593
18.97450,7227
18.98022,8056
18.98595,6826
18.99167,6481
18.99738,7403
19.00312,5712
19.00883,6656
19.01455,8424
19.02028,9770
19.02600,8649
19.03172,9221
19.03743,7174
19.04317,7122
19.04888,5654
19.05460,6573
19.06033,7418
19.06605,10418
19.07177,11709
19.07750,11241
19.08322,9505
19.08893,7455
19.09467,6593
19.10038,5800
19.10610,5079
19.11183,6789
19.11755,5335
19.12327,5560
19.12900,6563
19.13472,6520
19.14043,6416
19.14617,5939
19.15188,5246
19.15760,5856
19.16333,5760
19.16905,5594
19.17477,5902
19.18050,6406
19.18622,5071
19.19193,5131
19.19767,5931
19.20338,4706
19.20910,6143
19.21482,5920
19.22055,5411
19.22627,6138
19.23198,5887
19.23772,5374
19.24343,5635
19.24915,6042
19.25488,4154
19.26060,5480
19.26632,5269
19.27205,5169
19.27777,6418
19.28348,5077
19.28922,5722
19.29493,5208
19.30065,4568
19.30638,6439
19.31210,4886
19.31782,6204
19.32355,5912
19.32927,5963
19.33498,5480
19.34072,5957
19.34643,5935
19.35215,6582
19.35788,5103
19.36360,5649
19.36932,5400
19.37505,5250
19.38077,5872
19.38648,5442
19.39220,5302
19.39793,5560
19.40365,5561
19.40937,5921
19.41510,5815
19.42082,6951
19.42653,6443
19.43227,6772
19.43798,6891
19.44370,5839
19.44943,7293
19.45515,6811
19.46087,6685
19.46660,7512
19.47232,6925
19.47803,6694
19.48377,5734
19.48948,5896
19.49520,6384
19.50093,6575
19.50665,5950
19.51237,5370
19.51810,6593
19.52382,6655
19.52953,5592
19.53527,6428
19.54098,5965
19.54670,5538
19.55243,5790
19.55815,6605
19.56387,5676
19.56958,5306
19.57532,6646
19.58103,6953
19.58675,5156
19.59248,5804
19.59820,6689
19.60392,6587
19.60965,6200
19.61537,6419
19.62108,6364
19.62682,6611
19.63253,5862
19.63825,5500
19.64398,6561
19.64970,5536
19.65542,5257
19.66115,6135
19.66687,6151
19.67258,5322
19.67832,5590
19.68403,7188
19.68975,7457
19.69548,7097
19.70120,6503
19.70692,6379
19.71265,6311
19.71837,6903
19.72408,6034
19.72982,5420
19.73553,6800
19.74125,5199
19.74698,5667
19.75270,6629
19.75842,6568
19.76413,6929
19.76987,6955
19.77558,6688
19.78130,7163
19.78703,6215
19.79275,5810
19.79847,6701
19.80420,6108
19.80992,6388
19.81563,6821
19.82137,5708
19.82708,6675
19.83280,6845
19.83853,6524
19.84425,6953
19.84997,6619
19.85570,6630
19.86142,7582
19.86713,5839
19.87287,5924
19.87858,7611
19.88430,7188
19.89003,8414
19.89575,7621
19.90147,6008
19.90720,7280
19.91292,7279
19.91863,7422
19.92435,7966
19.93008,7053
19.93580,6138
19.94152,5203
19.94725,7524
19.95297,7852
19.95868,8907
19.96442,7131
19.97013,7743
19.97585,6922
19.98158,7649
19.98730,6026
19.99302,6640
19.99875,7879
20.00447,7326
20.01018,7214
20.01592,6850
20.02163,7756
20.02735,7920
20.03308,6528
20.03880,7508
20.04452,8707
20.05025,8733
20.05597,6982
20.06168,7210
20.06742,8168
20.07313,8227
20.07885,7353
20.08458,7675
20.09030,7431
20.09602,7716
20.10175,7637
20.10747,7230
20.11318,8452
20.11890,7036
20.12463,7333
20.13035,7163
20.13607,7468
20.14180,7256
20.14752,6585
20.15323,6810
20.15897,6697
20.16468,7027
20.17040,10075
20.17613,9533
20.18185,12333
20.18757,13597
20.19330,13936
20.19902,10868
20.20473,9725
20.21047,7576
20.21618,7024
20.22190,7648
20.22763,8262
20.23335,6431
20.23907,9393
20.24480,7477
20.25052,7341
20.25623,7629
20.26197,7711
20.26768,8477
20.27340,7664
20.27913,8244
20.28485,7899
20.29057,7249
20.29628,7616
20.30202,8132
20.30773,7903
20.31345,6309
20.31918,8212
20.32490,9235
20.33062,9672
20.33635,9252
20.34207,8504
20.34778,8425
20.35352,8320
20.35923,8631
20.36495,7809
20.37068,8023
20.37640,8551
20.38212,8924
20.38785,7655
20.39357,8927
20.39928,9257
20.40502,8224
20.41073,7445
20.41645,8625
20.42218,7585
20.42790,8248
20.43362,8550
20.43935,9069
20.44507,7835
20.45078,6757
20.45652,10041
20.46223,9768
20.46795,8837
20.47367,8048
20.47940,8855
20.48512,8763
20.49083,8039
20.49657,9834
20.50228,7411
20.50800,8637
20.51373,9100
20.51945,7814
20.52517,8871
20.53090,9468
20.53662,7202
20.54233,9411
20.54807,8626
20.55378,8617
20.55950,10119
20.56523,8674
20.57095,9691
20.57667,8344
20.58240,7943
20.58812,8864
20.59383,9445
20.59957,9043
20.60528,8322
20.61100,8242
20.61673,9489
20.62245,9603
20.62817,8819
20.63390,10253
20.63962,9040
20.64533,9702
20.65105,9135
20.65678,10337
20.66250,9792
20.66822,9372
20.67395,9312
20.67967,9347
20.68538,9426
20.69112,9169
20.69683,9226
20.70255,9721
20.70828,9454
20.71400,9465
20.71972,10540
20.72545,10500
20.73117,10388
20.73688,10469
20.74262,10702
20.74833,9071
20.75405,10698
20.75978,9236
20.76550,9966
20.77122,9354
20.77695,10432
20.78267,10564
20.78838,10995
20.79412,10037
20.79983,10412
20.80555,10027
20.81128,10130
20.81700,11290
20.82272,10264
20.82845,10881
20.83417,10211
20.83988,10444
20.84560,10559
20.85133,9761
20.85705,10975
20.86277,9471
20.86850,10539
20.87422,11760
20.87993,9825
20.88567,13127
20.89138,16721
20.89710,19344
20.90283,14032
20.90855,12376
20.91427,13978
20.92000,11506
20.92572,10484
20.93143,11058
20.93717,11419
20.94288,10486
20.94860,11780
20.95433,11417
20.96005,10157
20.96577,10066
20.97150,9922
20.97722,11663
20.98293,10627
20.98867,11451
20.99438,11150
21.00010,11307
21.00583,11635
21.01155,12215
21.01727,11603
21.02298,11218
21.02872,12320
21.03443,11175
21.04015,10423
21.04588,11660
21.05160,12426
21.05732,10738
21.06305,12316
21.06877,11902
21.07448,12446
21.08022,11300
21.08593,11301
21.09165,12283
21.09738,12435
21.10310,11757
21.10882,10990
21.11455,12535
21.12027,12367
21.12598,10414
21.13172,10432
21.13743,11813
21.14315,12248
21.14888,12453
21.15460,13706
21.16032,13181
21.16605,13776
21.17177,13205
21.17748,12832
21.18322,12917
21.18893,10996
21.19465,12232
21.20037,13303
21.20610,12442
21.21182,11666
21.21753,11700
21.22327,13007
21.22898,11953
21.23470,12677
21.24043,12982
21.24615,12806
21.25187,11176
21.25760,12812
21.26332,10562
21.26903,13896
21.27477,13269
21.28048,11390
21.28620,11078
21.29193,13214
21.29765,12115
21.30337,10767
21.30910,12046
21.31482,12412
21.32053,12782
21.32627,13225
21.33198,11678
21.33770,12006
21.34343,12963
21.34915,12822
21.35487,12304
21.36060,12910
21.36632,12786
21.37203,15231
21.37775,15695
21.38348,18226
21.38920,19728
21.39492,21676
21.40065,21329
21.40637,21009
21.41208,17881
21.41782,15637
21.42353,14916
21.42925,13875
21.43498,14206
21.44070,12791
21.44642,13071
21.45215,14104
21.45787,13221
21.46358,13765
21.46932,13228
21.47503,14167
21.48075,13715
21.48648,14939
21.49220,14330
21.49792,14442
21.50365,13581
21.50937,12109
21.51508,13713
21.52082,13729
21.52653,12522
21.53225,11789
21.53798,14217
21.54370,12779
21.54942,14739
21.55515,14328
21.56087,13871
21.56658,14313
21.57230,14713
21.57803,15112
21.58375,13139
21.58947,12577
21.59520,13857
21.60092,13600
21.60663,12837
21.61237,12417
21.61808,14889
21.62380,14026
21.62953,14518
21.63525,13809
21.64097,15016
21.64670,12948
21.65242,13771
21.65813,13752
21.66387,15492
21.66958,13520
21.67530,14983
21.68103,14615
21.68675,13951
21.69247,15547
21.69820,13094
21.70392,14609
21.70963,13406
21.71537,14140
21.72108,14709
21.72680,14299
21.73252,13528
21.73825,15569
21.74397,14512
21.74968,13486
21.75542,14782
21.76113,13472
21.76685,14546
21.77258,14424
21.77830,15752
21.78402,16360
21.78975,15567
21.79547,14687
21.80118,14615
21.80692,13576
21.81263,15605
21.81835,13772
21.82408,13853
21.82980,13836
21.83552,14150
21.84125,13730
21.84697,16154
21.85268,14768
21.85842,15292
21.86413,14986
21.86985,15403
21.87558,13994
21.88130,14799
21.88702,15753
21.89275,14349
21.89847,15607
21.90418,15140
21.90992,14110
21.91563,14859
21.92135,15198
21.92707,14784
21.93280,15047
21.93852,13020
21.94423,14419
21.94997,13094
21.95568,14413
21.96140,13623
21.96713,15224
21.97285,16535
21.97857,16597
21.98430,15638
21.99002,18003
21.99573,16947
22.00147,17681
22.00718,17128
22.01290,16979
22.01863,16354
22.02435,16766
22.03007,16075
22.03580,16277
22.04152,14201
22.04723,16820
22.05297,16902
22.05868,16896
22.06440,16580
22.07013,16445
22.07585,17514
22.08157,15193
22.08730,16202
22.09302,16108
22.09873,14735
22.10445,14699
22.11018,14878
22.11590,14867
22.12162,14189
22.12735,14890
22.13307,15442
22.13878,16320
22.14452,15379
22.15023,14810
22.15595,16280
22.16168,14298
22.16740,14952
22.17312,16289
22.17885,15076
22.18457,14195
22.19028,14787
22.19602,15835
22.20173,15236
22.20745,15042
22.21318,14875
22.21890,14837
22.22462,14588
22.23035,14558
22.23607,14395
22.24178,14660
22.24752,16779
22.25323,15249
22.25895,14872
22.26468,15221
22.27040,14594
22.27612,14287
22.28183,16427
22.28757,14182
22.29328,15059
22.29900,16100
22.30473,15075
22.31045,13850
22.31617,14628
22.32190,15007
22.32762,13910
22.33333,14862
22.33907,14916
22.34478,15736
22.35050,13479
22.35623,15222
22.36195,14087
22.36767,14881
22.37340,15190
22.37912,14894
22.38483,14556
22.39057,14699
22.39628,14065
22.40200,14171
22.40773,15769
22.41345,12903
22.41917,14603
22.42490,14644
22.43062,14970
22.43633,14497
22.44207,13328
22.44778,14927
22.45350,15914
22.45922,13336
22.46495,16624
22.47067,15054
22.47638,17182
22.48212,16663
22.48783,16518
22.49355,15881
22.49928,16209
22.50500,14786
22.51072,14671
22.51645,14420
22.52217,13964
22.52788,15316
22.53362,13406
22.53933,14413
22.54505,15402
22.55078,14604
22.55650,14752
22.56222,14619
22.56795,13702
22.57367,15283
22.57938,15256
22.58512,13915
22.59083,14037
22.59655,14200
22.60228,14623
22.60800,15106
22.61372,15595
22.61945,20293
22.62517,30483
22.63088,50542
22.63662,77153
22.64233,106764
22.64805,137138
22.65377,159391
22.65950,171475
22.66522,143458
22.67093,115878
22.67667,84583
22.68238,60176
22.68810,45816
22.69383,39734
22.69955,34055
22.70527,31473
22.71100,28887
22.71672,27364
22.72243,26772
22.72817,27218
22.73388,25566
22.73960,25199
22.74533,27361
22.75105,24266
22.75677,23296
22.76250,21686
22.76822,23455
22.77393,22807
22.77967,22872
22.78538,26881
22.79110,27251
22.79683,32583
22.80255,34648
22.80827,32616
22.81400,32004
22.81972,32040
22.82543,26844
22.83115,24101
22.83688,22508
22.84260,21342
22.84832,19674
22.85405,18921
22.85977,18105
22.86548,18659
22.87122,18161
22.87693,20704
22.88265,20403
22.88838,18619
22.89410,18163
22.89982,18346
22.90555,19051
22.91127,17767
22.91698,17154
22.92272,20216
22.92843,19003
22.93415,16684
22.93988,17825
22.94560,17967
22.95132,15106
22.95705,17877
22.96277,18238
22.96848,18716
22.97422,18295
22.97993,16850
22.98565,16445
22.99138,17354
22.99710,17879
23.00282,17045
23.00853,18139
23.01427,17610
23.01998,16339
23.02570,17539
23.03143,15786
23.03715,16845
23.04287,16593
23.04860,17155
23.05432,16564
23.06003,17601
23.06577,18075
23.07148,16861
23.07720,14094
23.08293,16534
23.08865,15758
23.09437,15370
23.10010,16997
23.10582,16721
23.11153,14545
23.11727,17221
23.12298,16697
23.12870,16492
23.13443,15824
23.14015,16540
23.14587,17042
23.15160,15541
23.15732,15286
23.16303,16780
23.16877,17324
23.17448,16122
23.18020,15071
23.18592,15241
23.19165,16079
23.19737,16881
23.20308,14874
23.20882,15409
23.21453,14976
23.22025,14078
23.22598,15171
23.23170,16099
23.23742,15772
23.24315,15063
23.24887,14750
23.25458,15085
23.26032,15387
23.26603,16409
23.27175,14591
23.27748,15114
23.28320,15089
23.28892,15402
23.29465,16159
23.30037,13768
23.30608,14759
23.31182,14877
23.31753,15982
23.32325,15383
23.32898,13857
23.33470,15079
23.34042,13843
23.34615,15638
23.35187,15017
23.35758,15171
23.36330,14083
23.36903,15016
23.37475,14420
23.38047,15626
23.38620,14652
23.39192,14849
23.39763,15933
23.40337,15597
23.40908,14582
23.41480,15164
23.42053,15280
23.42625,13083
23.43197,14535
23.43770,13007
23.44342,14939
23.44913,13791
23.45487,15550
23.46058,15155
23.46630,14878
23.47203,13886
23.47775,13368
23.48347,13742
23.48920,12979
23.49492,14623
23.50063,14560
23.50637,14910
23.51208,13939
23.51780,13122
23.52353,14830
23.52925,15013
23.53497,14681
23.54068,14513
23.54642,14314
23.55213,15369
23.55785,13347
23.56358,13676
23.56930,14259
23.57502,13791
23.58075,14358
23.58647,13482
23.59218,13763
23.59792,13779
23.60363,13665
23.60935,12986
23.61508,13484
23.62080,13988
23.62652,13838
23.63225,11970
23.63797,16189
23.64368,14258
23.64942,14620
23.65513,14031
23.66085,12382
23.66658,14660
23.67230,14322
23.67802,15033
23.68375,14103
23.68947,13746
23.69518,12307
23.70092,14462
23.70663,13342
23.71235,13930
23.71808,14287
23.72380,13428
23.72952,15051
23.73523,12790
23.74097,13285
23.74668,13080
23.75240,14497
23.75813,13534
23.76385,15519
23.76957,14348
23.77530,14316
23.78102,12808
23.78673,12632
23.79247,12542
23.79818,13778
23.80390,14564
23.80963,14527
23.81535,14026
23.82107,13387
23.82680,14891
23.83252,13458
23.83823,12618
23.84397,12760
23.84968,13993
23.85540,13343
23.86113,12844
23.86685,14879
23.87257,13604
23.87830,12396
23.88402,14406
23.88973,12286
23.89547,13204
23.90118,13850
23.90690,13365
23.91262,13931
23.91835,12545
23.92407,13774
23.92978,12878
23.93552,12552
23.94123,12573
23.94695,13843
23.95268,13164
23.95840,13612
23.96412,11455
23.96985,13559
23.97557,12331
23.98128,14332
23.98702,12938
23.99273,14409
23.99845,13642
24.00418,15264
24.00990,14025
24.01562,13158
24.02135,13794
24.02707,12669
24.03278,11635
24.03852,13547
24.04423,13140
24.04995,12101
24.05568,12971
24.06140,14391
24.06712,13093
24.07285,15445
24.07857,13358
24.08428,14375
24.09000,13763
24.09573,13927
24.10145,13960
24.10717,15632
24.11290,14425
24.11862,16455
24.12433,16661
24.13007,16769
24.13578,17116
24.14150,18193
24.14723,19864
24.15295,18778
24.15867,19304
24.16440,21014
24.17012,21659
24.17583,21640
24.18157,23814
24.18728,25592
24.19300,26399
24.19873,28102
24.20445,28983
24.21017,30814
24.21590,34780
24.22162,36373
24.22733,39844
24.23307,40337
24.23878,41062
24.24450,46089
24.25023,47572
24.25595,48758
24.26167,48378
24.26738,45802
24.27312,46176
24.27883,44297
24.28455,44021
24.29028,45103
24.29600,47839
24.30172,47969
24.30745,48516
24.31317,47459
24.31888,44241
24.32462,42903
24.33033,42630
24.33605,39152
24.34178,38492
24.34750,33636
24.35322,34793
24.35895,31631
24.36467,29794
24.37038,28997
24.37612,26730
24.38183,24428
24.38755,24642
24.39328,20877
24.39900,19306
24.40472,20267
24.41045,20617
24.41617,17815
24.42188,17934
24.42762,18491
24.43333,17471
24.43905,14627
24.44477,16164
24.45050,16097
24.45622,15741
24.46193,16222
24.46767,14973
24.47338,15274
24.47910,13522
24.48483,13468
24.49055,15041
24.49627,15080
24.50200,12493
24.50772,13711
24.51343,13297
24.51917,12449
24.52488,12067
24.53060,14233
24.53633,13277
24.54205,12701
24.54777,13221
24.55350,13387
24.55922,14590
24.56493,14249
24.57067,13715
24.57638,13429
24.58210,14411
24.58783,14109
24.59355,12124
24.59927,14669
24.60500,16897
24.61072,16581
24.61643,18311
24.62217,21576
24.62788,21809
24.63360,24226
24.63932,27436
24.64505,27858
24.65077,27892
24.65648,25347
24.66222,23544
24.66793,23308
24.67365,19964
24.67938,18438
24.68510,17358
24.69082,16377
24.69655,14828
24.70227,14633
24.70798,13285
24.71372,13497
24.71943,14436
24.72515,14346
24.73088,13639
24.73660,12387
24.74232,14327
24.74805,13018
24.75377,12042
24.75948,13514
24.76522,12278
24.77093,12701
24.77665,13329
24.78238,12872
24.78810,14632
24.79382,12560
24.79955,12786
24.80527,11798
24.81098,12050
24.81670,12701
24.82243,11650
24.82815,11164
24.83387,12762
24.83960,13935
24.84532,13870
24.85103,13092
24.85677,12269
24.86248,13006
24.86820,13399
24.87393,12490
24.87965,13217
24.88537,12045
24.89110,14218
24.89682,12488
24.90253,12582
24.90827,13495
24.91398,12088
24.91970,12058
24.92543,13172
24.93115,13026
24.93687,12964
24.94260,14028
24.94832,13673
24.95403,13578
24.95977,12101
24.96548,13622
24.97120,11997
24.97693,12733
24.98265,12098
24.98837,12607
24.99408,12299
24.99982,12528
25.00553,13222
25.01125,12172
25.01698,11649
25.02270,13551
25.02842,12261
25.03415,12600
25.03987,11684
25.04558,12710
25.05132,12985
25.05703,12232
25.06275,12000
25.06848,11731
25.07420,13475
25.07992,10342
25.08565,12057
25.09137,11376
25.09708,12332
25.10282,11652
25.10853,11902
25.11425,12725
25.11998,13274
25.12570,12024
25.13142,11415
25.13715,12398
25.14287,12333
25.14858,12573
25.15432,12555
25.16003,12914
25.16575,12049
25.17147,12552
25.17720,12578
25.18292,12414
25.18863,10838
25.19437,12280
25.20008,13558
25.20580,13923
25.21153,12874
25.21725,13564
25.22297,12786
25.22870,14088
25.23442,12345
25.24013,11598
25.24587,12412
25.25158,12653
25.25730,12206
25.26303,12504
25.26875,11046
25.27447,12051
25.28020,11112
25.28592,12938
25.29163,12239
25.29737,12336
25.30308,12811
25.30880,13099
25.31453,12691
25.32025,12327
25.32597,13309
25.33170,12436
25.33742,11610
25.34313,13006
25.34887,12113
25.35458,10810
25.36030,11692
25.36602,11913
25.37175,13068
25.37747,12375
25.38318,11866
25.38892,12875
25.39463,11753
25.40035,12359
25.40608,10965
25.41180,11558
25.41752,12569
25.42325,11659
25.42897,11262
25.43468,12850
25.44042,11296
25.44613,12047
25.45185,12386
25.45758,11506
25.46330,12327
25.46902,11040
25.47475,12190
25.48047,11349
25.48618,12638
25.49192,12406
25.49763,12762
25.50335,12832
25.50908,12945
25.51480,13174
25.52052,12477
25.52625,11886
25.53197,10554
25.53768,11278
25.54340,11078
25.54913,12362
25.55485,11302
25.56057,12180
25.56630,11474
25.57202,12767
25.57773,11600
25.58347,11984
25.58918,11307
25.59490,12758
25.60063,11488
25.60635,11431
25.61207,12060
25.61780,12341
25.62352,11866
25.62923,10859
25.63497,11806
25.64068,11315
25.64640,10640
25.65213,12872
25.65785,12092
25.66357,13136
25.66930,12118
25.67502,11690
25.68073,12642
25.68647,12247
25.69218,11901
25.69790,12842
25.70363,11961
25.70935,11429
25.71507,12430
25.72078,12257
25.72652,11567
25.73223,13493
25.73795,12385
25.74368,12241
25.74940,11663
25.75512,11656
25.76085,12295
25.76657,11993
25.77228,12554
25.77802,12709
25.78373,12403
25.78945,12596
25.79518,10636
25.80090,9755
25.80662,12495
25.81235,12050
25.81807,13289
25.82378,11054
25.82952,12359
25.83523,11063
25.84095,11077
25.84668,12853
25.85240,11601
25.85812,11104
25.86385,11212
25.86957,11506
25.87528,10866
25.88102,12368
25.88673,12855
25.89245,13189
25.89817,11803
25.90390,11109
25.90962,11600
25.91533,10980
25.92107,13020
25.92678,11655
25.93250,11485
25.93823,9960
25.94395,11144
25.94967,10690
25.95540,11551
25.96112,12011
25.96683,11699
25.97257,11613
25.97828,11852
25.98400,12381
25.98973,11949
25.99545,11650
26.00117,11903
26.00690,12776
26.01262,12209
26.01833,11387
26.02407,11565
26.02978,12170
26.03550,11042
26.04123,12528
26.04695,11838
26.05267,11735
26.05840,12535
26.06412,12221
26.06983,12879
26.07555,12114
26.08128,14310
26.08700,11329
26.09272,11760
26.09845,11483
26.10417,11048
26.10988,11330
26.11562,12223
26.12133,11229
26.12705,12036
26.13278,12514
26.13850,11794
26.14422,10880
26.14995,12341
26.15567,11794
26.16138,10864
26.16712,10840
26.17283,11913
26.17855,12220
26.18428,13031
26.19000,14502
26.19572,16217
26.20145,20213
26.20717,23910
26.21288,29469
26.21862,38156
26.22433,52595
26.23005,64891
26.23578,75839
26.24150,92324
26.24722,107425
26.25293,118005
26.25867,121625
26.26438,116839
26.27010,111450
26.27583,96245
26.28155,90182
26.28727,77589
26.29300,66502
26.29872,54028
26.30443,42668
26.31017,38008
26.31588,31522
26.32160,28968
26.32733,26199
26.33305,25652
26.33877,23789
26.34450,20963
26.35022,22834
26.35593,20063
26.36167,21033
26.36738,18817
26.37310,18392
26.37883,19306
26.38455,18183
26.39027,17149
26.39600,18161
26.40172,19381
26.40743,18087
26.41317,16951
26.41888,17408
26.42460,16294
26.43033,17836
26.43605,16831
26.44177,16144
26.44748,17840
26.45322,17606
26.45893,17794
26.46465,15978
26.47038,16471
26.47610,16414
26.48182,17145
26.48755,17462
26.49327,16339
26.49898,16600
26.50472,17216
26.51043,15601
26.51615,16963
26.52188,14999
26.52760,15790
26.53332,14078
26.53905,15240
26.54477,16836
26.55048,16288
26.55622,14890
26.56193,15812
26.56765,16263
26.57338,14148
26.57910,14642
26.58482,13994
26.59055,14808
26.59627,15221
26.60198,14462
26.60772,14933
26.61343,15306
26.61915,15207
26.62487,14922
26.63060,14750
26.63632,15383
26.64203,15627
26.64777,13266
26.65348,13088
26.65920,15266
26.66493,14505
26.67065,15329
26.67637,15230
26.68210,15253
26.68782,13212
26.69353,14828
26.69927,14582
26.70498,14003
26.71070,13979
26.71643,14446
26.72215,15193
26.72787,14184
26.73360,13296
26.73932,12873
26.74503,13177
26.75077,14973
26.75648,13381
26.76220,13125
26.76793,13964
26.77365,16083
26.77937,14131
26.78510,14748
26.79082,13525
26.79653,13414
26.80225,15251
26.80798,13149
26.81370,13811
26.81942,13212
26.82515,12701
26.83087,13461
26.83658,15488
26.84232,13546
26.84803,14934
26.85375,12114
26.85948,11864
26.86520,14658
26.87092,13628
26.87665,12609
26.88237,12831
26.88808,14057
26.89382,12905
26.89953,12984
26.90525,12502
26.91098,13085
26.91670,12561
26.92242,13527
26.92815,13338
26.93387,13464
26.93958,14364
26.94532,12537
26.95103,12905
26.95675,13294
26.96248,13976
26.96820,14204
26.97392,13355
26.97963,14443
26.98537,12751
26.99108,12577
26.99680,13624
27.00253,13253
27.00825,13247
27.01397,13031
27.01970,11409
27.02542,13016
27.03113,11521
27.03687,12891
27.04258,13895
27.04830,12846
27.05403,12889
27.05975,13045
27.06547,13170
27.07120,12364
27.07692,15687
27.08263,15144
27.08837,15044
27.09408,14814
27.09980,16218
27.10553,16515
27.11125,19961
27.11697,19874
27.12270,21755
27.12842,20859
27.13413,21272
27.13987,21669
27.14558,22943
27.15130,21606
27.15703,20179
27.16275,21666
27.16847,18677
27.17418,18646
27.17992,16407
27.18563,18077
27.19135,15054
27.19708,15510
27.20280,14677
27.20852,14653
27.21425,13965
27.21997,14160
27.22568,14037
27.23142,13789
27.23713,11607
27.24285,12682
27.24858,13215
27.25430,13021
27.26002,14407
27.26575,11872
27.27147,13611
27.27718,13473
27.28292,13226
27.28863,12656
27.29435,11581
27.30008,13159
27.30580,12816
27.31152,13268
27.31725,11996
27.32297,14329
27.32868,11836
27.33442,12967
27.34013,13377
27.34585,12916
27.35157,12535
27.35730,11664
27.36302,12354
27.36873,12276
27.37447,12111
27.38018,12869
27.38590,11694
27.39163,12277
27.39735,13233
27.40307,12517
27.40880,12603
27.41452,13269
27.42023,13175
27.42597,14246
27.43168,12923
27.43740,11890
27.44313,11797
27.44885,13324
27.45457,12667
27.46030,14354
27.46602,11073
27.47173,12826
27.47747,11079
27.48318,11544
27.48890,11787
27.49463,11446
27.50035,11813
27.50607,14027
27.51180,11956
27.51752,12630
27.52323,11671
27.52895,12281
27.53468,12095
27.54040,13056
27.54612,12870
27.55185,12615
27.55757,12453
27.56328,12465
27.56902,11599
27.57473,12050
27.58045,11733
27.58618,11525
27.59190,11875
27.59762,10802
27.60335,9411
27.60907,13236
27.61478,10664
27.62052,11380
27.62623,10946
27.63195,11378
27.63768,12777
27.64340,11885
27.64912,11596
27.65485,12369
27.66057,11706
27.66628,11990
27.67202,12066
27.67773,11721
27.68345,12945
27.68918,10897
27.69490,12633
27.70062,12671
27.70633,12155
27.71207,11419
27.71778,13112
27.72350,13594
27.72923,10524
27.73495,12301
27.74067,11454
27.74640,12604
27.75212,11663
27.75783,11613
27.76357,11730
27.76928,11696
27.77500,11679
27.78073,10684
27.78645,11540
27.79217,11836
27.79790,11359
27.80362,11314
27.80933,11898
27.81507,11909
27.82078,11205
27.82650,11951
27.83223,12245
27.83795,11316
27.84367,10752
27.84940,12848
27.85512,11132
27.86083,11322
27.86657,12596
27.87228,11042
27.87800,11553
27.88373,12575
27.88945,12140
27.89517,12756
27.90088,10814
27.90662,12301
27.91233,12380
27.91805,11463
27.92378,12332
27.92950,12138
27.93522,12055
27.94095,11502
27.94667,12005
27.95238,13343
27.95812,10984
27.96383,11405
27.96955,12609
27.97528,12347
27.98100,12397
27.98672,11570
27.99245,11731
27.99817,10172
28.00388,10999
28.00962,10972
28.01533,11825
28.02105,11492
28.02678,12741
28.03250,12370
28.03822,11976
28.04395,12342
28.04967,12952
28.05538,12901
28.06110,13143
28.06683,12079
28.07255,11644
28.07827,11589
28.08400,12150
28.08972,13443
28.09543,11155
28.10117,11581
28.10688,12163
28.11260,10805
28.11833,12111
28.12405,12546
28.12977,12842
28.13550,11389
28.14122,11787
28.14693,12812
28.15267,12093
28.15838,10687
28.16410,11578
28.16983,11345
28.17555,10765
28.18127,11618
28.18700,11622
28.19272,11529
28.19843,11451
28.20417,11271
28.20988,11732
28.21560,10936
28.22133,10743
28.22705,10060
28.23277,12058
28.23850,11648
28.24422,11505
28.24993,11670
28.25565,12503
28.26138,10441
28.26710,10761
28.27282,12283
28.27855,11752
28.28427,12562
28.28998,10135
28.29572,11376
28.30143,11597
28.30715,11837
28.31288,11728
28.31860,11038
28.32432,10961
28.33005,11945
28.33577,12883
28.34148,10768
28.34722,12140
28.35293,10616
28.35865,11435
28.36438,11889
28.37010,12154
28.37582,11084
28.38155,11848
28.38727,12009
28.39298,12259
28.39872,12247
28.40443,11313
28.41015,11822
28.41588,11217
28.42160,12182
28.42732,12452
28.43303,12642
28.43877,10067
28.44448,11499
28.45020,11461
28.45593,12820
28.46165,11420
28.46737,11749
28.47310,11717
28.47882,11102
28.48453,11620
28.49027,10713
28.49598,12340
28.50170,11654
28.50743,11808
28.51315,10690
28.51887,11092
28.52460,12057
28.53032,11820
28.53603,10868
28.54177,12022
28.54748,11291
28.55320,11473
28.55893,10720
28.56465,10660
28.57037,12092
28.57610,10872
28.58182,11624
28.58753,11867
28.59327,9959
28.59898,11551
28.60470,10530
28.61042,10767
28.61615,11395
28.62187,12153
28.62758,10104
28.63332,10562
28.63903,11146
28.64475,11621
28.65048,11403
28.65620,10750
28.66192,10433
28.66765,10256
28.67337,11321
28.67908,10633
28.68482,10362
28.69053,11437
28.69625,10610
28.70198,10490
28.70770,10461
28.71342,11629
28.71915,12479
28.72487,12074
28.73058,10263
28.73632,11863
28.74203,12637
28.74775,11112
28.75348,11544
28.75920,10196
28.76492,11062
28.77065,10997
28.77637,10727
28.78208,10555
28.78780,10325
28.79353,11096
28.79925,10937
28.80497,11040
28.81070,10243
28.81642,10356
28.82213,10673
28.82787,10811
28.83358,11633
28.83930,10766
28.84503,11170
28.85075,10512
28.85647,10778
28.86220,12162
28.86792,9932
28.87363,11586
28.87937,11133
28.88508,10651
28.89080,10215
28.89653,10790
28.90225,12091
28.90797,11550
28.91370,10397
28.91942,9431
28.92513,11784
28.93087,10234
28.93658,11690
28.94230,10404
28.94803,10969
28.95375,13050
28.95947,11960
28.96520,10767
28.97092,11941
28.97663,12301
28.98235,11998
28.98808,11345
28.99380,10720
28.99952,10371
29.00525,11513
29.01097,10607
29.01668,11432
29.02242,10662
29.02813,11374
29.03385,10626
29.03958,11598
29.04530,11053
29.05102,10822
29.05675,11214
29.06247,11744
29.06818,11181
29.07392,11560
29.07963,9774
29.08535,8934
29.09108,11319
29.09680,12524
29.10252,11670
29.10825,10464
29.11397,10254
29.11968,11715
29.12542,11376
29.13113,11619
29.13685,10747
29.14258,11317
29.14830,9684
29.15402,11479
29.15973,10743
29.16547,10217
29.17118,10636
29.17690,10240
29.18263,11473
29.18835,12067
29.19407,10809
29.19980,10800
29.20552,10835
29.21123,10227
29.21697,12879
29.22268,11737
29.22840,11381
29.23413,11192
29.23985,11421
29.24557,11111
29.25130,11712
29.25702,10864
29.26273,11421
29.26847,10953
29.27418,11391
29.27990,11189
29.28563,10434
29.29135,11168
29.29707,10887
29.30280,10773
29.30852,10805
29.31423,10320
29.31997,11199
29.32568,11461
29.33140,11063
29.33712,10456
29.34285,10159
29.34857,10960
29.35428,10181
29.36002,10644
29.36573,10063
29.37145,10286
29.37718,9887
29.38290,11584
29.38862,11818
29.39435,10028
29.40007,11303
29.40578,10956
29.41152,10620
29.41723,10740
29.42295,11342
29.42868,10577
29.43440,11219
29.44012,11713
29.44585,11299
29.45157,10474
29.45728,11695
29.46302,11615
29.46873,10089
29.47445,11237
29.48018,10863
29.48590,10290
29.49162,10090
29.49735,10106
29.50307,10507
29.50878,10700
29.51450,9799
29.52023,9812
29.52595,10575
29.53167,9482
29.53740,11252
29.54312,12319
29.54883,11086
29.55457,11549
29.56028,10483
29.56600,11469
29.57173,11689
29.57745,9912
29.58317,10995
29.58890,11436
29.59462,10076
29.60033,12152
29.60607,11977
29.61178,10696
29.61750,11248
29.62323,10878
29.62895,11622
29.63467,10135
29.64040,10813
29.64612,9712
29.65183,10714
29.65757,11036
29.66328,10205
29.66900,10405
29.67473,8821
29.68045,11208
29.68617,10932
29.69188,11011
29.69762,10385
29.70333,10887
29.70905,11159
29.71478,10036
29.72050,10124
29.72622,11080
29.73195,10912
29.73767,11766
29.74338,10342
29.74912,11278
29.75483,11689
29.76055,11389
29.76628,10718
29.77200,10831
29.77772,9808
29.78345,10081
29.78917,10863
29.79488,11257
29.80062,11930
29.80633,11391
29.81205,9348
29.81778,12029
29.82350,10563
29.82922,10400
29.83495,10680
29.84067,10496
29.84638,10301
29.85212,9843
29.85783,10156
29.86355,11516
29.86928,11255
29.87500,10026
29.88072,10850
29.88643,12234
29.89217,10950
29.89788,11167
29.90360,11632
29.90933,9975
29.91505,10865
29.92077,10450
29.92650,11084
29.93222,11768
29.93793,10954
29.94367,10316
29.94938,11528
29.95510,11157
29.96083,12123
29.96655,10262
29.97227,11233
29.97800,9941
29.98372,9466
29.98943,11172
