D:\MassHunter\GCMS\1\data\2025\Quentin\QD_250515_MONITORING_OMe_24h_3uL_inj.D Fri May 16 14:56:27 2025
Start of data points
6.04265	35465
6.04837	31125
6.05410	25427
6.05982	24376
6.06553	23268
6.07127	21032
6.07698	23425
6.08270	28157
6.08843	66014
6.09415	165733
6.09987	334174
6.10560	484668
6.11132	493434
6.11703	338576
6.12277	186918
6.12848	102614
6.13420	65913
6.13993	55804
6.14565	44440
6.15137	34535
6.15710	28814
6.16282	25456
6.16853	31528
6.17427	30449
6.17998	28048
6.18570	28742
6.19143	31813
6.19715	41657
6.20287	49673
6.20860	44174
6.21432	39659
6.22003	31231
6.22577	25576
6.23148	23217
6.23720	20611
6.24292	17274
6.24865	16713
6.25437	13409
6.26008	12481
6.26582	13471
6.27153	15767
6.27725	15968
6.28298	15125
6.28870	12371
6.29442	10398
6.30015	9353
6.30587	10218
6.31158	10417
6.31732	10780
6.32303	9220
6.32875	8577
6.33448	6740
6.34020	7149
6.34592	5592
6.35165	4188
6.35737	5308
6.36308	6216
6.36882	6014
6.37453	4883
6.38025	5855
6.38598	6835
6.39170	5762
6.39742	7732
6.40313	5892
6.40887	6894
6.41458	6398
6.42030	6176
6.42603	6864
6.43175	7291
6.43747	7584
6.44320	8116
6.44892	6596
6.45463	5731
6.46037	5866
6.46608	5066
6.47180	5053
6.47753	5470
6.48325	6678
6.48897	5953
6.49470	5729
6.50042	6454
6.50613	6453
6.51187	9115
6.51758	9688
6.52330	11101
6.52903	9053
6.53475	6249
6.54047	6291
6.54620	6654
6.55192	7463
6.55763	6419
6.56337	7460
6.56908	7225
6.57480	9028
6.58053	8703
6.58625	9735
6.59197	10873
6.59768	7885
6.60342	9019
6.60913	8411
6.61485	9494
6.62058	9211
6.62630	8791
6.63202	8080
6.63775	7066
6.64347	6657
6.64918	6578
6.65492	7253
6.66063	6284
6.66635	6993
6.67208	7276
6.67780	6465
6.68352	6422
6.68925	8692
6.69497	12819
6.70068	22764
6.70642	30788
6.71213	34303
6.71785	30135
6.72358	21587
6.72930	13550
6.73502	9799
6.74075	9393
6.74647	8882
6.75218	10149
6.75792	10743
6.76363	10096
6.76935	9060
6.77507	9034
6.78080	9667
6.78652	10005
6.79223	11184
6.79797	11815
6.80368	10862
6.80940	11213
6.81513	9860
6.82085	9386
6.82657	8859
6.83230	9142
6.83802	9708
6.84373	9034
6.84947	8868
6.85518	6306
6.86090	5541
6.86663	5297
6.87235	5813
6.87807	3992
6.88380	4789
6.88952	4909
6.89523	5105
6.90097	6110
6.90668	6273
6.91240	5133
6.91813	5193
6.92385	4101
6.92957	4247
6.93530	4371
6.94102	5391
6.94673	4515
6.95245	6521
6.95818	7600
6.96390	9349
6.96962	9697
6.97535	9329
6.98107	6942
6.98678	4954
6.99252	5023
6.99823	4477
7.00395	4643
7.00968	4973
7.01540	4944
7.02112	5408
7.02685	4506
7.03257	3898
7.03828	2695
7.04402	3136
7.04973	3575
7.05545	3421
7.06118	3718
7.06690	5303
7.07262	5334
7.07835	3403
7.08407	3907
7.08978	3226
7.09552	2275
7.10123	2978
7.10695	2684
7.11268	2879
7.11840	3691
7.12412	4542
7.12983	2843
7.13557	3320
7.14128	3506
7.14700	2730
7.15273	3227
7.15845	3107
7.16417	2862
7.16990	3496
7.17562	2715
7.18133	2291
7.18707	2797
7.19278	3093
7.19850	2998
7.20423	3182
7.20995	3969
7.21567	4977
7.22140	6072
7.22712	5025
7.23283	3362
7.23857	2369
7.24428	2750
7.25000	3067
7.25573	3480
7.26145	3939
7.26717	3919
7.27290	4952
7.27862	6531
7.28433	5499
7.29007	6049
7.29578	3868
7.30150	3838
7.30723	3642
7.31295	3280
7.31867	3799
7.32438	5100
7.33012	5198
7.33583	4971
7.34155	3323
7.34728	3620
7.35300	3023
7.35872	3028
7.36445	2831
7.37017	2387
7.37588	2553
7.38162	1887
7.38733	2753
7.39305	2312
7.39878	3511
7.40450	2971
7.41022	3440
7.41595	3564
7.42167	3027
7.42738	2887
7.43312	1982
7.43883	2584
7.44455	2771
7.45028	2573
7.45600	3138
7.46172	3935
7.46745	5462
7.47317	12238
7.47888	22781
7.48462	36980
7.49033	44838
7.49605	40619
7.50177	28005
7.50750	17053
7.51322	9570
7.51893	8197
7.52467	8020
7.53038	7304
7.53610	8409
7.54183	6936
7.54755	7251
7.55327	6709
7.55900	5175
7.56472	4733
7.57043	4714
7.57617	3958
7.58188	3538
7.58760	3172
7.59333	2246
7.59905	2987
7.60477	2587
7.61050	2938
7.61622	2675
7.62193	3358
7.62767	3662
7.63338	3548
7.63910	3301
7.64483	2704
7.65055	2129
7.65627	3521
7.66200	2978
7.66772	3693
7.67343	2925
7.67915	3120
7.68488	3756
7.69060	3357
7.69632	3913
7.70205	3963
7.70777	3372
7.71348	3209
7.71922	2161
7.72493	2783
7.73065	2838
7.73638	3332
7.74210	2783
7.74782	3905
7.75355	4063
7.75927	3491
7.76498	2821
7.77072	2711
7.77643	2284
7.78215	2926
7.78788	2570
7.79360	2909
7.79932	2944
7.80505	2471
7.81077	2734
7.81648	1916
7.82222	2880
7.82793	2879
7.83365	2085
7.83938	1828
7.84510	1802
7.85082	1878
7.85653	1954
7.86227	1874
7.86798	2049
7.87370	1695
7.87943	2385
7.88515	1584
7.89087	2071
7.89660	2899
7.90232	2054
7.90803	2079
7.91377	2012
7.91948	1847
7.92520	1854
7.93093	2358
7.93665	2034
7.94237	2356
7.94810	2363
7.95382	2132
7.95953	2096
7.96527	2733
7.97098	2102
7.97670	1623
7.98243	2380
7.98815	2312
7.99387	2025
7.99960	2523
8.00532	2087
8.01103	2360
8.01677	2712
8.02248	1852
8.02820	2364
8.03393	3102
8.03965	2817
8.04537	2203
8.05108	2354
8.05682	3059
8.06253	3314
8.06825	2471
8.07398	2404
8.07970	2902
8.08542	3276
8.09115	2913
8.09687	3398
8.10258	3418
8.10832	2078
8.11403	3242
8.11975	2769
8.12548	2456
8.13120	3409
8.13692	3377
8.14265	3935
8.14837	4087
8.15408	6661
8.15982	9715
8.16553	14701
8.17125	15523
8.17698	18628
8.18270	14487
8.18842	12315
8.19415	10990
8.19987	6591
8.20558	5864
8.21130	4161
8.21703	3614
8.22275	2712
8.22847	2008
8.23420	2692
8.23992	2539
8.24563	2758
8.25137	1926
8.25708	2343
8.26280	2510
8.26853	2540
8.27425	2846
8.27997	3433
8.28570	3351
8.29142	3699
8.29713	2478
8.30287	2199
8.30858	2494
8.31430	2333
8.32003	1825
8.32575	2553
8.33147	2636
8.33720	2616
8.34292	1590
8.34863	2095
8.35437	2234
8.36008	2790
8.36580	2497
8.37153	3605
8.37725	3828
8.38297	2709
8.38870	2584
8.39442	2948
8.40013	2351
8.40585	1814
8.41158	2303
8.41730	2211
8.42302	2092
8.42875	2422
8.43447	2127
8.44018	3735
8.44592	3169
8.45163	2423
8.45735	2571
8.46308	2409
8.46880	2165
8.47452	2953
8.48025	2212
8.48597	2255
8.49168	2199
8.49742	1743
8.50313	1741
8.50885	2748
8.51458	1541
8.52030	1625
8.52602	1903
8.53175	2023
8.53747	2316
8.54318	2448
8.54892	2572
8.55463	3451
8.56035	3395
8.56608	4019
8.57180	3200
8.57752	3373
8.58323	2948
8.58897	1523
8.59468	2012
8.60040	2095
8.60613	2587
8.61185	2822
8.61757	2483
8.62330	1939
8.62902	2586
8.63473	1819
8.64047	2576
8.64618	2626
8.65190	2427
8.65763	2607
8.66335	2798
8.66907	2293
8.67480	2435
8.68052	1984
8.68623	1987
8.69197	2280
8.69768	2529
8.70340	1526
8.70913	2936
8.71485	1604
8.72057	2293
8.72630	1897
8.73202	1650
8.73773	2186
8.74347	2136
8.74918	3677
8.75490	4597
8.76062	9213
8.76635	11041
8.77207	12655
8.77778	11267
8.78352	9000
8.78923	6167
8.79495	4342
8.80068	3663
8.80640	3106
8.81212	2605
8.81785	3824
8.82357	3515
8.82928	4048
8.83502	4099
8.84073	3485
8.84645	2289
8.85218	2123
8.85790	2977
8.86362	1648
8.86935	1626
8.87507	2339
8.88078	2711
8.88652	2401
8.89223	1926
8.89795	2132
8.90368	2995
8.90940	2201
8.91512	2401
8.92085	2037
8.92657	1881
8.93228	2469
8.93800	2373
8.94373	1595
8.94945	2741
8.95517	2022
8.96090	2015
8.96662	2857
8.97233	2066
8.97807	2350
8.98378	2175
8.98950	1287
8.99523	2312
9.00095	1704
9.00667	1590
9.01240	2245
9.01812	2689
9.02383	1553
9.02957	1829
9.03528	2517
9.04100	2923
9.04673	2510
9.05245	3002
9.05817	1414
9.06390	2708
9.06962	1899
9.07533	2469
9.08107	1854
9.08678	2353
9.09250	1892
9.09823	2492
9.10395	2396
9.10967	1412
9.11540	2553
9.12112	2850
9.12683	2553
9.13255	2349
9.13828	2891
9.14400	3535
9.14972	5176
9.15545	6597
9.16117	6587
9.16688	6596
9.17262	5467
9.17833	3629
9.18405	2451
9.18978	2943
9.19550	2226
9.20122	2251
9.20695	1439
9.21267	1898
9.21838	2241
9.22412	1955
9.22983	2435
9.23555	1937
9.24128	1703
9.24700	1413
9.25272	1786
9.25845	2295
9.26417	2875
9.26988	3449
9.27562	2905
9.28133	3673
9.28705	2623
9.29278	2308
9.29850	2104
9.30422	2432
9.30993	2214
9.31567	1847
9.32138	2284
9.32710	1819
9.33283	1531
9.33855	2953
9.34427	2666
9.35000	3539
9.35572	2781
9.36143	3286
9.36717	2505
9.37288	2102
9.37860	2109
9.38433	2904
9.39005	1395
9.39577	1422
9.40150	2132
9.40722	1695
9.41293	1560
9.41867	2293
9.42438	2654
9.43010	2479
9.43583	2976
9.44155	2844
9.44727	2222
9.45300	2411
9.45872	2223
9.46443	2667
9.47017	2672
9.47588	1770
9.48160	917
9.48732	1955
9.49305	2490
9.49877	2116
9.50448	1783
9.51022	1475
9.51593	2227
9.52165	1895
9.52738	1689
9.53310	1912
9.53882	2191
9.54455	2063
9.55027	3007
9.55598	2554
9.56172	2232
9.56743	1840
9.57315	2192
9.57888	1738
9.58460	2026
9.59032	3593
9.59605	3200
9.60177	2419
9.60748	2204
9.61322	1536
9.61893	1820
9.62465	2156
9.63038	1875
9.63610	2181
9.64182	1978
9.64755	2122
9.65327	2454
9.65898	2437
9.66470	2241
9.67043	2121
9.67615	1746
9.68187	1667
9.68760	2247
9.69332	2247
9.69903	1408
9.70477	1540
9.71048	2250
9.71620	2049
9.72193	2059
9.72765	2257
9.73337	1228
9.73910	1954
9.74482	1505
9.75053	1807
9.75627	2194
9.76198	2061
9.76770	1590
9.77343	1607
9.77915	2499
9.78487	1866
9.79060	1381
9.79632	1567
9.80203	2267
9.80777	1720
9.81348	1590
9.81920	1986
9.82493	1963
9.83065	2425
9.83637	1494
9.84208	1902
9.84782	1728
9.85353	1851
9.85925	1362
9.86498	1716
9.87070	1802
9.87642	1600
9.88215	1469
9.88787	1907
9.89358	1676
9.89932	2195
9.90503	3322
9.91075	3314
9.91648	6960
9.92220	13396
9.92792	26691
9.93365	50393
9.93937	82165
9.94508	114246
9.95082	110384
9.95653	80652
9.96225	46699
9.96798	21679
9.97370	8407
9.97942	4624
9.98515	2276
9.99087	2259
9.99658	1979
10.00232	2132
10.00803	2156
10.01375	1945
10.01947	2795
10.02520	1994
10.03092	1623
10.03663	1831
10.04237	2747
10.04808	1690
10.05380	2349
10.05953	1986
10.06525	1971
10.07097	2533
10.07670	1991
10.08242	2202
10.08813	2644
10.09387	2402
10.09958	2518
10.10530	2459
10.11103	2612
10.11675	2404
10.12247	1839
10.12820	2705
10.13392	2226
10.13963	1412
10.14537	1533
10.15108	2787
10.15680	2115
10.16253	2689
10.16825	2453
10.17397	2654
10.17970	1794
10.18542	2912
10.19113	2355
10.19687	2211
10.20258	2378
10.20830	2638
10.21402	2336
10.21975	2688
10.22547	2714
10.23118	3131
10.23692	1762
10.24263	2095
10.24835	1789
10.25408	1409
10.25980	2738
10.26552	1956
10.27125	2292
10.27697	2310
10.28268	2154
10.28842	1391
10.29413	1930
10.29985	1995
10.30558	1520
10.31130	1652
10.31702	2409
10.32275	2363
10.32847	2870
10.33418	2012
10.33992	2023
10.34563	1621
10.35135	1419
10.35708	2234
10.36280	1464
10.36852	2215
10.37425	1461
10.37997	2196
10.38568	1756
10.39140	1642
10.39713	1738
10.40285	1911
10.40857	1901
10.41430	1462
10.42002	1952
10.42573	1849
10.43147	2445
10.43718	2290
10.44290	2945
10.44863	2672
10.45435	3097
10.46007	2098
10.46580	2931
10.47152	2871
10.47723	1960
10.48297	2907
10.48868	1841
10.49440	3006
10.50013	2707
10.50585	2533
10.51157	2231
10.51730	2137
10.52302	2025
10.52873	1639
10.53447	2868
10.54018	2563
10.54590	2985
10.55163	2455
10.55735	2475
10.56307	2754
10.56878	2269
10.57452	2378
10.58023	2030
10.58595	2620
10.59168	1753
10.59740	1947
10.60312	2206
10.60885	2686
10.61457	2385
10.62028	2396
10.62602	2371
10.63173	1937
10.63745	1623
10.64318	2377
10.64890	1924
10.65462	2021
10.66035	2259
10.66607	2260
10.67178	1341
10.67752	1891
10.68323	1739
10.68895	2397
10.69468	1823
10.70040	1832
10.70612	1859
10.71185	2097
10.71757	1442
10.72328	1615
10.72902	2371
10.73473	2314
10.74045	1176
10.74617	2006
10.75190	1770
10.75762	2286
10.76333	1964
10.76907	1340
10.77478	2193
10.78050	1689
10.78623	2592
10.79195	2625
10.79767	2258
10.80340	2076
10.80912	1812
10.81483	1868
10.82057	2059
10.82628	1699
10.83200	1607
10.83773	1958
10.84345	2085
10.84917	2828
10.85490	2565
10.86062	2574
10.86633	1610
10.87207	1631
10.87778	1561
10.88350	1756
10.88923	2696
10.89495	2102
10.90067	1998
10.90640	2181
10.91212	2590
10.91783	3015
10.92355	4013
10.92928	3468
10.93500	3372
10.94072	3578
10.94645	2494
10.95217	1528
10.95788	1175
10.96362	1924
10.96933	2119
10.97505	1467
10.98078	1977
10.98650	2109
10.99222	1948
10.99795	2563
11.00367	1869
11.00938	1805
11.01512	2030
11.02083	1896
11.02655	2233
11.03228	1579
11.03800	2230
11.04372	1838
11.04945	2146
11.05517	2005
11.06088	1886
11.06662	2594
11.07233	1557
11.07805	2400
11.08378	2564
11.08950	2826
11.09522	2089
11.10095	2222
11.10667	2739
11.11238	2863
11.11810	2399
11.12383	2492
11.12955	2543
11.13527	1766
11.14100	1860
11.14672	2014
11.15243	2651
11.15817	1913
11.16388	1663
11.16960	1919
11.17533	2310
11.18105	2023
11.18677	1961
11.19250	2456
11.19822	2415
11.20393	2084
11.20967	2606
11.21538	1891
11.22110	2395
11.22683	2776
11.23255	1711
11.23827	2188
11.24400	1840
11.24972	1966
11.25543	2196
11.26117	1715
11.26688	1814
11.27260	1764
11.27833	2104
11.28405	1672
11.28977	2388
11.29548	1866
11.30122	1901
11.30693	2613
11.31265	1984
11.31838	1708
11.32410	2186
11.32982	2129
11.33555	1753
11.34127	1759
11.34698	2025
11.35272	2257
11.35843	2138
11.36415	1820
11.36988	1878
11.37560	1854
11.38132	1313
11.38705	1419
11.39277	1614
11.39848	1456
11.40422	1611
11.40993	1556
11.41565	1092
11.42138	1660
11.42710	3053
11.43282	2267
11.43855	2505
11.44427	3178
11.44998	5142
11.45572	4812
11.46143	3883
11.46715	3651
11.47287	1866
11.47860	2592
11.48432	1770
11.49003	2149
11.49577	1974
11.50148	1784
11.50720	2662
11.51293	2364
11.51865	1736
11.52437	1545
11.53010	1520
11.53582	1837
11.54153	1598
11.54727	1664
11.55298	1477
11.55870	2560
11.56443	1938
11.57015	1911
11.57587	1433
11.58160	2295
11.58732	1650
11.59303	1991
11.59877	2267
11.60448	2128
11.61020	2015
11.61593	1715
11.62165	1847
11.62737	1729
11.63310	2034
11.63882	2428
11.64453	1782
11.65025	1971
11.65598	2221
11.66170	2136
11.66742	1454
11.67315	1948
11.67887	1832
11.68458	1927
11.69032	2212
11.69603	1745
11.70175	2077
11.70748	2263
11.71320	2561
11.71892	2010
11.72465	2265
11.73037	2335
11.73608	2104
11.74182	2767
11.74753	2216
11.75325	1329
11.75898	1395
11.76470	1823
11.77042	2291
11.77615	1489
11.78187	2367
11.78758	3163
11.79332	3921
11.79903	3844
11.80475	3019
11.81048	2443
11.81620	2698
11.82192	2450
11.82763	2442
11.83337	2238
11.83908	1468
11.84480	2065
11.85053	2254
11.85625	1935
11.86197	2676
11.86770	2116
11.87342	1799
11.87913	2264
11.88487	2215
11.89058	1222
11.89630	1857
11.90203	1519
11.90775	2256
11.91347	2700
11.91920	1182
11.92492	1552
11.93063	1656
11.93637	2147
11.94208	1028
11.94780	2453
11.95353	1344
11.95925	2895
11.96497	3490
11.97070	5275
11.97642	5732
11.98213	5630
11.98787	5536
11.99358	4302
11.99930	2869
12.00502	1764
12.01075	2298
12.01647	1197
12.02218	1761
12.02792	1407
12.03363	1199
12.03935	1705
12.04508	1956
12.05080	1702
12.05652	1397
12.06225	1942
12.06797	1973
12.07368	1812
12.07942	1724
12.08513	2240
12.09085	1407
12.09658	1788
12.10230	1456
12.10802	1839
12.11375	2120
12.11947	2013
12.12518	2220
12.13092	2225
12.13663	1317
12.14235	1399
12.14808	2900
12.15380	4519
12.15952	8941
12.16525	18745
12.17097	31826
12.17668	46362
12.18242	53124
12.18813	43544
12.19385	28421
12.19957	14217
12.20530	6439
12.21102	2364
12.21673	2630
12.22247	1535
12.22818	1323
12.23390	1740
12.23963	1787
12.24535	2151
12.25107	1660
12.25680	2355
12.26252	2007
12.26823	1747
12.27397	1846
12.27968	2621
12.28540	2717
12.29113	2106
12.29685	2350
12.30257	2024
12.30830	1716
12.31402	1532
12.31973	1900
12.32547	2575
12.33118	1977
12.33690	1781
12.34263	2434
12.34835	2845
12.35407	3170
12.35980	3598
12.36552	4044
12.37123	3901
12.37695	3003
12.38268	2620
12.38840	2451
12.39412	2562
12.39985	1611
12.40557	2023
12.41128	2127
12.41702	1444
12.42273	1640
12.42845	2200
12.43418	2806
12.43990	2301
12.44562	2727
12.45135	1882
12.45707	2217
12.46278	1563
12.46852	1449
12.47423	2325
12.47995	1956
12.48568	2158
12.49140	1704
12.49712	1727
12.50285	1874
12.50857	2590
12.51428	1554
12.52002	1433
12.52573	1758
12.53145	2088
12.53718	2314
12.54290	2448
12.54862	2288
12.55433	3394
12.56007	2290
12.56578	2734
12.57150	2809
12.57723	1362
12.58295	2224
12.58867	2123
12.59440	1691
12.60012	1189
12.60583	1841
12.61157	1571
12.61728	977
12.62300	1647
12.62873	1141
12.63445	2050
12.64017	1572
12.64590	1500
12.65162	1716
12.65733	2114
12.66307	2758
12.66878	1735
12.67450	2242
12.68023	2536
12.68595	2107
12.69167	1674
12.69740	3176
12.70312	4956
12.70883	5641
12.71457	6699
12.72028	3488
12.72600	2908
12.73172	2736
12.73745	3068
12.74317	2466
12.74888	2035
12.75462	2193
12.76033	1797
12.76605	1757
12.77178	1660
12.77750	2445
12.78322	2012
12.78895	1441
12.79467	2510
12.80038	1398
12.80612	1816
12.81183	1652
12.81755	2569
12.82328	2707
12.82900	3476
12.83472	2339
12.84045	2611
12.84617	2566
12.85188	2910
12.85762	2227
12.86333	1881
12.86905	2212
12.87478	2295
12.88050	2698
12.88622	2358
12.89195	2583
12.89767	2766
12.90338	1924
12.90912	2201
12.91483	1838
12.92055	1640
12.92627	2134
12.93200	3248
12.93772	3919
12.94343	4039
12.94917	4427
12.95488	2345
12.96060	2710
12.96633	1304
12.97205	2467
12.97777	1949
12.98350	3025
12.98922	2270
12.99493	2130
13.00067	1836
13.00638	1751
13.01210	2524
13.01783	1465
13.02355	2159
13.02927	1587
13.03500	1914
13.04072	2212
13.04643	1943
13.05217	2997
13.05788	3105
13.06360	3752
13.06933	3776
13.07505	2782
13.08077	2847
13.08648	3386
13.09222	4238
13.09793	7946
13.10365	17473
13.10938	38612
13.11510	80480
13.12082	140172
13.12655	193702
13.13227	195880
13.13798	152467
13.14372	95115
13.14943	52329
13.15515	33268
13.16088	22271
13.16660	16163
13.17232	13345
13.17805	12296
13.18377	11322
13.18948	8847
13.19522	9780
13.20093	8336
13.20665	7202
13.21238	7623
13.21810	7411
13.22382	6132
13.22955	5186
13.23527	4366
13.24098	4274
13.24672	4631
13.25243	4921
13.25815	4774
13.26388	4280
13.26960	4703
13.27532	4148
13.28103	4110
13.28677	4569
13.29248	4099
13.29820	3323
13.30393	3156
13.30965	4298
13.31537	2619
13.32110	2700
13.32682	3427
13.33253	2224
13.33827	2964
13.34398	4376
13.34970	3708
13.35543	2345
13.36115	2778
13.36687	2908
13.37260	3324
13.37832	3981
13.38403	5199
13.38977	5747
13.39548	5520
13.40120	4060
13.40693	3245
13.41265	3387
13.41837	2625
13.42410	2350
13.42982	2856
13.43553	3118
13.44127	3059
13.44698	2387
13.45270	2401
13.45842	2572
13.46415	3244
13.46987	4130
13.47558	6242
13.48132	7338
13.48703	7833
13.49275	6709
13.49848	6515
13.50420	5400
13.50992	4954
13.51565	4623
13.52137	4798
13.52708	4375
13.53282	4182
13.53853	3679
13.54425	3690
13.54998	3433
13.55570	3619
13.56142	3886
13.56715	3233
13.57287	3356
13.57858	4094
13.58432	2748
13.59003	2967
13.59575	2624
13.60148	2707
13.60720	2562
13.61292	2693
13.61865	3553
13.62437	3347
13.63008	3118
13.63580	2684
13.64153	2480
13.64725	2404
13.65297	2308
13.65870	3054
13.66442	3076
13.67013	2604
13.67587	3005
13.68158	2607
13.68730	2638
13.69303	2473
13.69875	2515
13.70447	2932
13.71020	3111
13.71592	2465
13.72163	3130
13.72737	4203
13.73308	5767
13.73880	5788
13.74453	5489
13.75025	5103
13.75597	4520
13.76170	3318
13.76742	3381
13.77313	3104
13.77887	3404
13.78458	3248
13.79030	2631
13.79603	3621
13.80175	3119
13.80747	3822
13.81318	2764
13.81892	2745
13.82463	3139
13.83035	3366
13.83608	3473
13.84180	3418
13.84752	4459
13.85325	5091
13.85897	11282
13.86468	26770
13.87042	63086
13.87613	102887
13.88185	144480
13.88758	145785
13.89330	107276
13.89902	64747
13.90475	32550
13.91047	17567
13.91618	11878
13.92192	9471
13.92763	7533
13.93335	6684
13.93908	5905
13.94480	4737
13.95052	5545
13.95625	4689
13.96197	4387
13.96768	5443
13.97342	4287
13.97913	3711
13.98485	3547
13.99058	3544
13.99630	4737
14.00202	4705
14.00773	3668
14.01347	3883
14.01918	3621
14.02490	3598
14.03063	3497
14.03635	3014
14.04207	3457
14.04780	2661
14.05352	2992
14.05923	3506
14.06497	3169
14.07068	3460
14.07640	4149
14.08213	2904
14.08785	3112
14.09357	2847
14.09930	3345
14.10502	2084
14.11073	2653
14.11647	4145
14.12218	2581
14.12790	2407
14.13363	3293
14.13935	2234
14.14507	3378
14.15080	3140
14.15652	2948
14.16223	4503
14.16797	4979
14.17368	8426
14.17940	10916
14.18512	14022
14.19085	12116
14.19657	8445
14.20228	5462
14.20802	4214
14.21373	3391
14.21945	2877
14.22518	2890
14.23090	2059
14.23662	2445
14.24235	2061
14.24807	2993
14.25378	2183
14.25952	2245
14.26523	3158
14.27095	1993
14.27668	2162
14.28240	2889
14.28812	2722
14.29385	2376
14.29957	3203
14.30528	2977
14.31102	2063
14.31673	3099
14.32245	2952
14.32818	2237
14.33390	2111
14.33962	1715
14.34535	2679
14.35107	2466
14.35678	2553
14.36250	2502
14.36823	2362
14.37395	2451
14.37967	1678
14.38540	2325
14.39112	2623
14.39683	3080
14.40257	4089
14.40828	3390
14.41400	2315
14.41973	2788
14.42545	2409
14.43117	2200
14.43690	2625
14.44262	1290
14.44833	2665
14.45407	3223
14.45978	3533
14.46550	3701
14.47123	3575
14.47695	4132
14.48267	2801
14.48840	2167
14.49412	1645
14.49983	2309
14.50557	2451
14.51128	2430
14.51700	3554
14.52273	3195
14.52845	4638
14.53417	3819
14.53988	3224
14.54562	3309
14.55133	2241
14.55705	2556
14.56278	2116
14.56850	2262
14.57422	2243
14.57995	2237
14.58567	2982
14.59138	2614
14.59712	3713
14.60283	3429
14.60855	3298
14.61428	2791
14.62000	2572
14.62572	2357
14.63145	2790
14.63717	2631
14.64288	1700
14.64862	1995
14.65433	2628
14.66005	2818
14.66578	3050
14.67150	2631
14.67722	3028
14.68295	3057
14.68867	2932
14.69438	1967
14.70012	2906
14.70583	2937
14.71155	4287
14.71727	4602
14.72300	5174
14.72872	3530
14.73443	2974
14.74017	2858
14.74588	2477
14.75160	2595
14.75733	2294
14.76305	2941
14.76877	2693
14.77450	3020
14.78022	1950
14.78593	2235
14.79167	1995
14.79738	2290
14.80310	2244
14.80883	2070
14.81455	2666
14.82027	2943
14.82600	3206
14.83172	2828
14.83743	2112
14.84317	2526
14.84888	2663
14.85460	2971
14.86033	2685
14.86605	2703
14.87177	3788
14.87750	4385
14.88322	3848
14.88893	4252
14.89465	4713
14.90038	3657
14.90610	3743
14.91182	2948
14.91755	2760
14.92327	3108
14.92898	4230
14.93472	2902
14.94043	3042
14.94615	3659
14.95188	2287
14.95760	2495
14.96332	3237
14.96905	4403
14.97477	5048
14.98048	3226
14.98622	3848
14.99193	2486
14.99765	3017
15.00338	1826
15.00910	2643
15.01482	3121
15.02055	3212
15.02627	2746
15.03198	3154
15.03772	2038
15.04343	1968
15.04915	1649
15.05488	2289
15.06060	1561
15.06632	2492
15.07205	2568
15.07777	1610
15.08348	2361
15.08920	3008
15.09493	2471
15.10065	2256
15.10637	1975
15.11210	2292
15.11782	2888
15.12353	3226
15.12927	3475
15.13498	4134
15.14070	4766
15.14643	5489
15.15215	3336
15.15787	3664
15.16360	2897
15.16932	2551
15.17503	2715
15.18077	2918
15.18648	2476
15.19220	2538
15.19793	1928
15.20365	1559
15.20937	2287
15.21510	2688
15.22082	2168
15.22653	2515
15.23227	2701
15.23798	2861
15.24370	2446
15.24943	2723
15.25515	2268
15.26087	2507
15.26658	2175
15.27232	2102
15.27803	1945
15.28375	1834
15.28948	2300
15.29520	2486
15.30092	3187
15.30665	2250
15.31237	2744
15.31808	2441
15.32382	2379
15.32953	2368
15.33525	3158
15.34098	3002
15.34670	2998
15.35242	1329
15.35815	2110
15.36387	2091
15.36958	2553
15.37532	2124
15.38103	2172
15.38675	2865
15.39248	1911
15.39820	2175
15.40392	2504
15.40965	1598
15.41537	2889
15.42108	2929
15.42682	2022
15.43253	3089
15.43825	2997
15.44397	2066
15.44970	2117
15.45542	2008
15.46113	2187
15.46687	2240
15.47258	1954
15.47830	3227
15.48403	1627
15.48975	1971
15.49547	2611
15.50120	2307
15.50692	2233
15.51263	1718
15.51837	1832
15.52408	2859
15.52980	2030
15.53553	2766
15.54125	2018
15.54697	2437
15.55270	2391
15.55842	1812
15.56413	2229
15.56987	1888
15.57558	2954
15.58130	2435
15.58703	2334
15.59275	2135
15.59847	4095
15.60420	3176
15.60992	3887
15.61563	3806
15.62135	1915
15.62708	1782
15.63280	2280
15.63852	3097
15.64425	2525
15.64997	2658
15.65568	1913
15.66142	2223
15.66713	1888
15.67285	2133
15.67858	1928
15.68430	2128
15.69002	2770
15.69575	1929
15.70147	1913
15.70718	3105
15.71292	2999
15.71863	2375
15.72435	2365
15.73008	3283
15.73580	2854
15.74152	2213
15.74725	1799
15.75297	1793
15.75868	2111
15.76442	1646
15.77013	2304
15.77585	1703
15.78158	1524
15.78730	1591
15.79302	2265
15.79875	2272
15.80447	2200
15.81018	2024
15.81590	2582
15.82163	2115
15.82735	1771
15.83307	2589
15.83880	2050
15.84452	3246
15.85023	2364
15.85597	1882
15.86168	2106
15.86740	1910
15.87313	1960
15.87885	2245
15.88457	2280
15.89030	2900
15.89602	2411
15.90173	2766
15.90747	2704
15.91318	2974
15.91890	2985
15.92463	3889
15.93035	3074
15.93607	3163
15.94180	2043
15.94752	2066
15.95323	2301
15.95897	2289
15.96468	3113
15.97040	2426
15.97613	2236
15.98185	2515
15.98757	1226
15.99328	2201
15.99902	2338
16.00473	1963
16.01045	2160
16.01618	2487
16.02190	2238
16.02762	2028
16.03335	2079
16.03907	2512
16.04478	1717
16.05052	1919
16.05623	1925
16.06195	1967
16.06768	1452
16.07340	2231
16.07912	2298
16.08485	1873
16.09057	2252
16.09628	2154
16.10202	2523
16.10773	2312
16.11345	1827
16.11918	1777
16.12490	1712
16.13062	1512
16.13635	1849
16.14207	2165
16.14778	2147
16.15352	2025
16.15923	1805
16.16495	2172
16.17067	1903
16.17640	2124
16.18212	1867
16.18783	2228
16.19357	1389
16.19928	2274
16.20500	2909
16.21073	2535
16.21645	2437
16.22217	2044
16.22790	2226
16.23362	2180
16.23933	3055
16.24507	3453
16.25078	2000
16.25650	2043
16.26223	2043
16.26795	2052
16.27367	2599
16.27940	1908
16.28512	2421
16.29083	1695
16.29657	1886
16.30228	2452
16.30800	3024
16.31373	2794
16.31945	1743
16.32517	2464
16.33090	2804
16.33662	2201
16.34233	1858
16.34805	1919
16.35378	2391
16.35950	2668
16.36522	1951
16.37095	2481
16.37667	1816
16.38238	1354
16.38812	1921
16.39383	3061
16.39955	1699
16.40528	2163
16.41100	2301
16.41672	2467
16.42245	1841
16.42817	2856
16.43388	2367
16.43962	2260
16.44533	2061
16.45105	2184
16.45678	2545
16.46250	2222
16.46822	2417
16.47395	2104
16.47967	2399
16.48538	1663
16.49112	3295
16.49683	2424
16.50255	2692
16.50828	2446
16.51400	2693
16.51972	2856
16.52543	2388
16.53117	2327
16.53688	1679
16.54260	2560
16.54833	2232
16.55405	2758
16.55977	2173
16.56550	2564
16.57122	2210
16.57693	2312
16.58267	2021
16.58838	2362
16.59410	2377
16.59983	2047
16.60555	2850
16.61127	2310
16.61700	2918
16.62272	6042
16.62843	12996
16.63417	34356
16.63988	65623
16.64560	90104
16.65133	103185
16.65705	83387
16.66277	50029
16.66850	21335
16.67422	10090
16.67993	5338
16.68567	3339
16.69138	2601
16.69710	3005
16.70282	2468
16.70855	2268
16.71427	3700
16.71998	2724
16.72572	3035
16.73143	3048
16.73715	2213
16.74288	2580
16.74860	2517
16.75432	2244
16.76005	2356
16.76577	2521
16.77148	2532
16.77722	1965
16.78293	2653
16.78865	2409
16.79438	1945
16.80010	2559
16.80582	2281
16.81155	2511
16.81727	2627
16.82298	2783
16.82872	2634
16.83443	1688
16.84015	2024
16.84588	2030
16.85160	3089
16.85732	2471
16.86305	2718
16.86877	2478
16.87448	2414
16.88020	3555
16.88593	2387
16.89165	3666
16.89737	3480
16.90310	2746
16.90882	3529
16.91453	3534
16.92027	2687
16.92598	3175
16.93170	2815
16.93743	3935
16.94315	2664
16.94887	2762
16.95460	2947
16.96032	2406
16.96603	3070
16.97177	2529
16.97748	1876
16.98320	2775
16.98893	2814
16.99465	3217
17.00037	2771
17.00610	2616
17.01182	2841
17.01753	2626
17.02327	2413
17.02898	2071
17.03470	2728
17.04043	2730
17.04615	3418
17.05187	3090
17.05760	2486
17.06332	2458
17.06903	2602
17.07475	1407
17.08048	2081
17.08620	1885
17.09192	1923
17.09765	2396
17.10337	3050
17.10908	2725
17.11482	3478
17.12053	1841
17.12625	3210
17.13198	2837
17.13770	2190
17.14342	3572
17.14915	2521
17.15487	3250
17.16058	2311
17.16632	2597
17.17203	3059
17.17775	2936
17.18348	1890
17.18920	2655
17.19492	2970
17.20065	2517
17.20637	2301
17.21208	3475
17.21782	3076
17.22353	3275
17.22925	2470
17.23498	2801
17.24070	1445
17.24642	3069
17.25213	2753
17.25787	2614
17.26358	2916
17.26930	3187
17.27503	2687
17.28075	2210
17.28647	2486
17.29220	2534
17.29792	2749
17.30363	2398
17.30937	2617
17.31508	3015
17.32080	3785
17.32653	3398
17.33225	3194
17.33797	3358
17.34370	3684
17.34942	3447
17.35513	2419
17.36087	2473
17.36658	3119
17.37230	2652
17.37803	2418
17.38375	2360
17.38947	2781
17.39520	3443
17.40092	3403
17.40663	2644
17.41237	2635
17.41808	4364
17.42380	3310
17.42952	3200
17.43525	2500
17.44097	2627
17.44668	3110
17.45242	2774
17.45813	3481
17.46385	3069
17.46958	2919
17.47530	3545
17.48102	3530
17.48675	3835
17.49247	3687
17.49818	4219
17.50392	2840
17.50963	2313
17.51535	3296
17.52108	2742
17.52680	2715
17.53252	2946
17.53825	3481
17.54397	2826
17.54968	3266
17.55542	2641
17.56113	2939
17.56685	3289
17.57258	2897
17.57830	2887
17.58402	2715
17.58975	3302
17.59547	2875
17.60118	2975
17.60690	2833
17.61263	2950
17.61835	3172
17.62407	3824
17.62980	3938
17.63552	3299
17.64123	3440
17.64697	2601
17.65268	3004
17.65840	3265
17.66413	2877
17.66985	3070
17.67557	3490
17.68130	3089
17.68702	2853
17.69273	3047
17.69847	4441
17.70418	2762
17.70990	3282
17.71563	3316
17.72135	3749
17.72707	2934
17.73280	3275
17.73852	3425
17.74423	3244
17.74997	2615
17.75568	2863
17.76140	3279
17.76713	3481
17.77285	3559
17.77857	3359
17.78430	3497
17.79002	4187
17.79573	3273
17.80145	4306
17.80718	3653
17.81290	3712
17.81862	2592
17.82435	3815
17.83007	3922
17.83578	4031
17.84152	4294
17.84723	4221
17.85295	4192
17.85868	3637
17.86440	4191
17.87012	3625
17.87585	3825
17.88157	2758
17.88728	3812
17.89302	4031
17.89873	3846
17.90445	4087
17.91018	4099
17.91590	3022
17.92162	2873
17.92735	2997
17.93307	3509
17.93878	4127
17.94452	4119
17.95023	3193
17.95595	4711
17.96167	4338
17.96740	3846
17.97312	3824
17.97883	3442
17.98457	5216
17.99028	3923
17.99600	3704
18.00173	3533
18.00745	4523
18.01317	4693
18.01890	5618
18.02462	5925
18.03033	6861
18.03607	4945
18.04178	4983
18.04750	4868
18.05323	4846
18.05895	4663
18.06467	4480
18.07040	5491
18.07612	4455
18.08183	4152
18.08757	4532
18.09328	4244
18.09900	4601
18.10473	4152
18.11045	4049
18.11617	4502
18.12190	3830
18.12762	3868
18.13333	4658
18.13907	3785
18.14478	4726
18.15050	3931
18.15622	3522
18.16195	2892
18.16767	3602
18.17338	4115
18.17912	5165
18.18483	2888
18.19055	4230
18.19628	4020
18.20200	3371
18.20772	3889
18.21345	3936
18.21917	5269
18.22488	4725
18.23062	4155
18.23633	3926
18.24205	3736
18.24778	4247
18.25350	4715
18.25922	3088
18.26495	4361
18.27067	4338
18.27638	3946
18.28212	3844
18.28783	4010
18.29355	3880
18.29928	2944
18.30500	2964
18.31072	3559
18.31645	2450
18.32217	4121
18.32788	4085
18.33360	4639
18.33933	3096
18.34505	3470
18.35077	3693
18.35650	2814
18.36222	3707
18.36793	3973
18.37367	3579
18.37938	3857
18.38510	3619
18.39083	3272
18.39655	2944
18.40227	3256
18.40800	4812
18.41372	3837
18.41943	4047
18.42517	3581
18.43088	4023
18.43660	3882
18.44233	3956
18.44805	3762
18.45377	3045
18.45950	4438
18.46522	2958
18.47093	4045
18.47667	3946
18.48238	3888
18.48810	3619
18.49383	3802
18.49955	3323
18.50527	3667
18.51098	3294
18.51672	3623
18.52243	4042
18.52815	3451
18.53388	3604
18.53960	4060
18.54532	3842
18.55105	4816
18.55677	4686
18.56248	5248
18.56822	5431
18.57393	5543
18.57965	5707
18.58538	5387
18.59110	5264
18.59682	4231
18.60255	4393
18.60827	4473
18.61398	3434
18.61972	4485
18.62543	4354
18.63115	4451
18.63688	3566
18.64260	3079
18.64832	4049
18.65405	4473
18.65977	3818
18.66548	4219
18.67122	4805
18.67693	4038
18.68265	4500
18.68837	4620
18.69410	4625
18.69982	3657
18.70553	3550
18.71127	3983
18.71698	4135
18.72270	4346
18.72843	3634
18.73415	4152
18.73987	3908
18.74560	4025
18.75132	4269
18.75703	3438
18.76277	3990
18.76848	4085
18.77420	4790
18.77993	7676
18.78565	14586
18.79137	30242
18.79710	53903
18.80282	78874
18.80853	89832
18.81427	80499
18.81998	56972
18.82570	37160
18.83143	21274
18.83715	17025
18.84287	13776
18.84860	12905
18.85432	11457
18.86003	10255
18.86577	10031
18.87148	9075
18.87720	9686
18.88292	10827
18.88865	9998
18.89437	12241
18.90008	11622
18.90582	10798
18.91153	7835
18.91725	8684
18.92298	8353
18.92870	7891
18.93442	7757
18.94015	8201
18.94587	8655
18.95158	9012
18.95732	10417
18.96303	10253
18.96875	9608
18.97448	7591
18.98020	8446
18.98592	7274
18.99165	7195
18.99737	7650
19.00308	7896
19.00882	7760
19.01453	9231
19.02025	9735
19.02598	10418
19.03170	9160
19.03742	7136
19.04315	6710
19.04887	7010
19.05458	6483
19.06030	6857
19.06603	6726
19.07175	6411
19.07747	6068
19.08320	6029
19.08892	5804
19.09463	7265
19.10037	5685
19.10608	7003
19.11180	6471
19.11753	5644
19.12325	5713
19.12897	5810
19.13470	6152
19.14042	5575
19.14613	5607
19.15187	6032
19.15758	5892
19.16330	6995
19.16903	5116
19.17475	6047
19.18047	5994
19.18620	5924
19.19192	5676
19.19763	4645
19.20337	5189
19.20908	5650
19.21480	6279
19.22053	5835
19.22625	6034
19.23197	5478
19.23768	6601
19.24342	5377
19.24913	5826
19.25485	5711
19.26058	5868
19.26630	6073
19.27202	5016
19.27775	5387
19.28347	4888
19.28918	6222
19.29492	5124
19.30063	6073
19.30635	5468
19.31208	6008
19.31780	6274
19.32352	4902
19.32925	5661
19.33497	6595
19.34068	6156
19.34642	6018
19.35213	5386
19.35785	5753
19.36358	5183
19.36930	6521
19.37502	6266
19.38075	5505
19.38647	5633
19.39218	6474
19.39792	6578
19.40363	5938
19.40935	5358
19.41507	4626
19.42080	5939
19.42652	6434
19.43223	5699
19.43797	6180
19.44368	6463
19.44940	6749
19.45513	6987
19.46085	7770
19.46657	8500
19.47230	6880
19.47802	6798
19.48373	6624
19.48947	6287
19.49518	6402
19.50090	6324
19.50663	6226
19.51235	7113
19.51807	6642
19.52380	6223
19.52952	6200
19.53523	6328
19.54097	5811
19.54668	6632
19.55240	6672
19.55813	6610
19.56385	7393
19.56957	6897
19.57530	7174
19.58102	8221
19.58673	6298
19.59247	7250
19.59818	7901
19.60390	7199
19.60962	7300
19.61535	6596
19.62107	7878
19.62678	7271
19.63252	7296
19.63823	7433
19.64395	6100
19.64968	7129
19.65540	9123
19.66112	6841
19.66685	7738
19.67257	7330
19.67828	7678
19.68402	7234
19.68973	6434
19.69545	8437
19.70118	7497
19.70690	8312
19.71262	8103
19.71835	8823
19.72407	8402
19.72978	6854
19.73552	9145
19.74123	7959
19.74695	9546
19.75268	9456
19.75840	7753
19.76412	9761
19.76983	8966
19.77557	8651
19.78128	9741
19.78700	9499
19.79273	9968
19.79845	8925
19.80417	9744
19.80990	9420
19.81562	8864
19.82133	9869
19.82707	8453
19.83278	10074
19.83850	8951
19.84423	8987
19.84995	9472
19.85567	10692
19.86140	8663
19.86712	9992
19.87283	11413
19.87857	10541
19.88428	9839
19.89000	9935
19.89573	9007
19.90145	9622
19.90717	9444
19.91290	9871
19.91862	8970
19.92433	9232
19.93007	10315
19.93578	10184
19.94150	9405
19.94723	10298
19.95295	9413
19.95867	10026
19.96438	8594
19.97012	10824
19.97583	9232
19.98155	8900
19.98728	8374
19.99300	8352
19.99872	8586
20.00445	9253
20.01017	8277
20.01588	8061
20.02162	7828
20.02733	10693
20.03305	7682
20.03878	8428
20.04450	8257
20.05022	7775
20.05595	8705
20.06167	9074
20.06738	8857
20.07312	7600
20.07883	8816
20.08455	8333
20.09028	8250
20.09600	8391
20.10172	8134
20.10745	7992
20.11317	8331
20.11888	7313
20.12462	7323
20.13033	8299
20.13605	8806
20.14177	8504
20.14750	8300
20.15322	8513
20.15893	8618
20.16467	8203
20.17038	8986
20.17610	12098
20.18183	12697
20.18755	12012
20.19327	12038
20.19900	11411
20.20472	9478
20.21043	8567
20.21617	8248
20.22188	7904
20.22760	8408
20.23333	8025
20.23905	7682
20.24477	7983
20.25050	7606
20.25622	8079
20.26193	7446
20.26767	8343
20.27338	8051
20.27910	8043
20.28483	7666
20.29055	9178
20.29627	9604
20.30200	7825
20.30772	8036
20.31343	8447
20.31915	9443
20.32488	9124
20.33060	9278
20.33632	8753
20.34205	8290
20.34777	7588
20.35348	7909
20.35922	8499
20.36493	8956
20.37065	8433
20.37638	8601
20.38210	8980
20.38782	8865
20.39355	8353
20.39927	8445
20.40498	8468
20.41072	7959
20.41643	8664
20.42215	7915
20.42788	9071
20.43360	8869
20.43932	7995
20.44505	8406
20.45077	6904
20.45648	8197
20.46222	8593
20.46793	8992
20.47365	7282
20.47938	9045
20.48510	8376
20.49082	9704
20.49653	9819
20.50227	8851
20.50798	8355
20.51370	8291
20.51943	7890
20.52515	8456
20.53087	8896
20.53660	8163
20.54232	8218
20.54803	9179
20.55377	9620
20.55948	9378
20.56520	9191
20.57093	8125
20.57665	9623
20.58237	8824
20.58810	7695
20.59382	9849
20.59953	9280
20.60527	9231
20.61098	8019
20.61670	8641
20.62243	10400
20.62815	10299
20.63387	9304
20.63960	9629
20.64532	9730
20.65103	9189
20.65677	8605
20.66248	9872
20.66820	9807
20.67393	8365
20.67965	9887
20.68537	9851
20.69108	9404
20.69682	8931
20.70253	9365
20.70825	9273
20.71398	9693
20.71970	9500
20.72542	10035
20.73115	10127
20.73687	9768
20.74258	10243
20.74832	10408
20.75403	9771
20.75975	10286
20.76548	10204
20.77120	11745
20.77692	10352
20.78265	9890
20.78837	9273
20.79408	10486
20.79982	10956
20.80553	11079
20.81125	10408
20.81698	9511
20.82270	10284
20.82842	11105
20.83415	9237
20.83987	10761
20.84558	11118
20.85132	10108
20.85703	10026
20.86275	10294
20.86847	11966
20.87420	9499
20.87992	13258
20.88563	15151
20.89137	15757
20.89708	18422
20.90280	17512
20.90853	13241
20.91425	13188
20.91997	12182
20.92570	11740
20.93142	11088
20.93713	11617
20.94287	10903
20.94858	11383
20.95430	10728
20.96003	10299
20.96575	10326
20.97147	11585
20.97720	10674
20.98292	11194
20.98863	11630
20.99437	9970
21.00008	11936
21.00580	13207
21.01153	10957
21.01725	11555
21.02297	12583
21.02870	9866
21.03442	11490
21.04013	9121
21.04585	10866
21.05158	11974
21.05730	9173
21.06302	11548
21.06875	11811
21.07447	11689
21.08018	12826
21.08592	10457
21.09163	12224
21.09735	12009
21.10308	12843
21.10880	10762
21.11452	12144
21.12025	11687
21.12597	12377
21.13168	12116
21.13742	10937
21.14313	11807
21.14885	12943
21.15458	11997
21.16030	13485
21.16602	14271
21.17175	13021
21.17747	12274
21.18318	13342
21.18892	12560
21.19463	11931
21.20035	11596
21.20608	12773
21.21180	10976
21.21752	10875
21.22323	12098
21.22897	13325
21.23468	12229
21.24040	11687
21.24613	13016
21.25185	11570
21.25757	13092
21.26330	12489
21.26902	12358
21.27473	12228
21.28047	12605
21.28618	13086
21.29190	12875
21.29763	11519
21.30335	12994
21.30907	12164
21.31480	12453
21.32052	13107
21.32623	11526
21.33197	12102
21.33768	11817
21.34340	12132
21.34913	14595
21.35485	12951
21.36057	13020
21.36630	12534
21.37202	14652
21.37773	15056
21.38347	14063
21.38918	18243
21.39490	18849
21.40062	22094
21.40635	19891
21.41207	17154
21.41778	15817
21.42352	14043
21.42923	14448
21.43495	13015
21.44068	13154
21.44640	11754
21.45212	14167
21.45785	14846
21.46357	17138
21.46928	17184
21.47502	18530
21.48073	17675
21.48645	18067
21.49218	15657
21.49790	14726
21.50362	14008
21.50935	14502
21.51507	14235
21.52078	13252
21.52652	12984
21.53223	13952
21.53795	14160
21.54368	13897
21.54940	13600
21.55512	13322
21.56085	12581
21.56657	12468
21.57228	13388
21.57800	13632
21.58373	13037
21.58945	13812
21.59517	14967
21.60090	14415
21.60662	11955
21.61233	14441
21.61807	12847
21.62378	12418
21.62950	13755
21.63523	13545
21.64095	13175
21.64667	12145
21.65240	13207
21.65812	13253
21.66383	14179
21.66957	15564
21.67528	14471
21.68100	13291
21.68673	13603
21.69245	13716
21.69817	13377
21.70390	13955
21.70962	14307
21.71533	13309
21.72107	12739
21.72678	12586
21.73250	11910
21.73823	13534
21.74395	13481
21.74967	13913
21.75540	13679
21.76112	13072
21.76683	13757
21.77255	15064
21.77828	12649
21.78400	13673
21.78972	13963
21.79545	14904
21.80117	14125
21.80688	15028
21.81262	12760
21.81833	15371
21.82405	14914
21.82978	13596
21.83550	13614
21.84122	13523
21.84695	16113
21.85267	14171
21.85838	15774
21.86412	13992
21.86983	13418
21.87555	14699
21.88128	13383
21.88700	13378
21.89272	13269
21.89845	14238
21.90417	15199
21.90988	14059
21.91562	14876
21.92133	13041
21.92705	14248
21.93278	12539
21.93850	13595
21.94422	14806
21.94993	13151
21.95567	15173
21.96138	14545
21.96710	14276
21.97283	12649
21.97855	14092
21.98427	15786
21.99000	15740
21.99572	15838
22.00143	16090
22.00717	17295
22.01288	16190
22.01860	15108
22.02433	14321
22.03005	14091
22.03577	15499
22.04150	15648
22.04722	16032
22.05293	16196
22.05867	14545
22.06438	15537
22.07010	14917
22.07583	16494
22.08155	14870
22.08727	14350
22.09300	14451
22.09872	13406
22.10443	15890
22.11017	13173
22.11588	15552
22.12160	15079
22.12732	14102
22.13305	13545
22.13877	14293
22.14448	15825
22.15022	15160
22.15593	14645
22.16165	14975
22.16738	13366
22.17310	14677
22.17882	15408
22.18455	14890
22.19027	13981
22.19598	14375
22.20172	16845
22.20743	13627
22.21315	13321
22.21888	12995
22.22460	13388
22.23032	13741
22.23605	14766
22.24177	13356
22.24748	14163
22.25322	13924
22.25893	13613
22.26465	14336
22.27038	14400
22.27610	14361
22.28182	16333
22.28755	13642
22.29327	14814
22.29898	13468
22.30470	14020
22.31043	14657
22.31615	13296
22.32187	15447
22.32760	14791
22.33332	12893
22.33903	15061
22.34477	14202
22.35048	15403
22.35620	13406
22.36193	14369
22.36765	13642
22.37337	14599
22.37910	13623
22.38482	14193
22.39053	15126
22.39627	13395
22.40198	13537
22.40770	11928
22.41343	13951
22.41915	14871
22.42487	14696
22.43060	13190
22.43632	13666
22.44203	14591
22.44777	14277
22.45348	14938
22.45920	13510
22.46493	17346
22.47065	15411
22.47637	16134
22.48208	15879
22.48782	16267
22.49353	16046
22.49925	14132
22.50498	14896
22.51070	15315
22.51642	13101
22.52215	15174
22.52787	14141
22.53358	14353
22.53932	14340
22.54503	15693
22.55075	13039
22.55648	13844
22.56220	14310
22.56792	14472
22.57365	14074
22.57937	14030
22.58508	13145
22.59082	12581
22.59653	13906
22.60225	13705
22.60798	12433
22.61370	15561
22.61942	18745
22.62515	27088
22.63087	42531
22.63658	68198
22.64232	102035
22.64803	137778
22.65375	163999
22.65948	164257
22.66520	143351
22.67092	123723
22.67663	94979
22.68237	62040
22.68808	50967
22.69380	39779
22.69953	37567
22.70525	33111
22.71097	30912
22.71670	27911
22.72242	26712
22.72813	25653
22.73387	24693
22.73958	24864
22.74530	23133
22.75103	22900
22.75675	23632
22.76247	23429
22.76820	21635
22.77392	23452
22.77963	22944
22.78537	24091
22.79108	27429
22.79680	27399
22.80253	29197
22.80825	29363
22.81397	31041
22.81970	26858
22.82542	26046
22.83113	23183
22.83687	21732
22.84258	20813
22.84830	20422
22.85402	18357
22.85975	19276
22.86547	18728
22.87118	18704
22.87692	18764
22.88263	18575
22.88835	17134
22.89408	18300
22.89980	18154
22.90552	17012
22.91125	19038
22.91697	17701
22.92268	16582
22.92842	17772
22.93413	18088
22.93985	17534
22.94558	17485
22.95130	15302
22.95702	16299
22.96275	16879
22.96847	17544
22.97418	15937
22.97992	16781
22.98563	16663
22.99135	15799
22.99708	16047
23.00280	18095
23.00852	15736
23.01425	16046
23.01997	16944
23.02568	16822
23.03140	15412
23.03713	16323
23.04285	16905
23.04857	15668
23.05430	16324
23.06002	16929
23.06573	16399
23.07147	15748
23.07718	16077
23.08290	16070
23.08863	16216
23.09435	14655
23.10007	15585
23.10580	14515
23.11152	15230
23.11723	15701
23.12297	16592
23.12868	16749
23.13440	14799
23.14013	17004
23.14585	16354
23.15157	16973
23.15730	14577
23.16302	15315
23.16873	14074
23.17447	15944
23.18018	14362
23.18590	15206
23.19163	14645
23.19735	14875
23.20307	13904
23.20878	15270
23.21452	15063
23.22023	14783
23.22595	15190
23.23168	14336
23.23740	15715
23.24312	15652
23.24885	14403
23.25457	13595
23.26028	14578
23.26602	14656
23.27173	17025
23.27745	13817
23.28318	14346
23.28890	14138
23.29462	13064
23.30035	15592
23.30607	13484
23.31178	14845
23.31752	16103
23.32323	14468
23.32895	13739
23.33468	15467
23.34040	14703
23.34612	13924
23.35185	14447
23.35757	13997
23.36328	15397
23.36902	12877
23.37473	14539
23.38045	14105
23.38617	14333
23.39190	14606
23.39762	15463
23.40333	14849
23.40907	13887
23.41478	14049
23.42050	14166
23.42623	14422
23.43195	13769
23.43767	13573
23.44340	13866
23.44912	14119
23.45483	14362
23.46057	14764
23.46628	15182
23.47200	14898
23.47773	14334
23.48345	14151
23.48917	13754
23.49490	14246
23.50062	15157
23.50633	13538
23.51207	15209
23.51778	14558
23.52350	15354
23.52923	14317
23.53495	15664
23.54067	12688
23.54640	14583
23.55212	13261
23.55783	14851
23.56355	13059
23.56928	13735
23.57500	12855
23.58072	13639
23.58645	13089
23.59217	14622
23.59788	13121
23.60362	13839
23.60933	14106
23.61505	13924
23.62078	14139
23.62650	13835
23.63222	13641
23.63795	12460
23.64367	13652
23.64938	12816
23.65512	13368
23.66083	12402
23.66655	13358
23.67228	13398
23.67800	14186
23.68372	13236
23.68945	13531
23.69517	14724
23.70088	12093
23.70662	13591
23.71233	13976
23.71805	12542
23.72378	12888
23.72950	13872
23.73522	13581
23.74095	13290
23.74667	15280
23.75238	13440
23.75810	13277
23.76383	15010
23.76955	13275
23.77527	13864
23.78100	14308
23.78672	11726
23.79243	14765
23.79817	13126
23.80388	13345
23.80960	12243
23.81533	13847
23.82105	13435
23.82677	13898
23.83250	13217
23.83822	12634
23.84393	13270
23.84967	14042
23.85538	13225
23.86110	14369
23.86683	13375
23.87255	14243
23.87827	13767
23.88400	13202
23.88972	12532
23.89543	14223
23.90117	13546
23.90688	12036
23.91260	14251
23.91833	13043
23.92405	13746
23.92977	14209
23.93548	15337
23.94122	13532
23.94693	14300
23.95265	13536
23.95838	14181
23.96410	12320
23.96982	14289
23.97555	13365
23.98127	12946
23.98698	12945
23.99272	11725
23.99843	14242
24.00415	13761
24.00988	13925
24.01560	12303
24.02132	12805
24.02705	13785
24.03277	11567
24.03848	12455
24.04422	14916
24.04993	13002
24.05565	13600
24.06138	13267
24.06710	11946
24.07282	11669
24.07855	14534
24.08427	12969
24.08998	13294
24.09572	14092
24.10143	14775
24.10715	12952
24.11287	13078
24.11860	13160
24.12432	14417
24.13003	13833
24.13577	12211
24.14148	13572
24.14720	14067
24.15293	13624
24.15865	13048
24.16437	13244
24.17010	13957
24.17582	12734
24.18153	14682
24.18727	14039
24.19298	13816
24.19870	13149
24.20443	14864
24.21015	15103
24.21587	14039
24.22160	14316
24.22732	13789
24.23303	15098
24.23877	14751
24.24448	14160
24.25020	14427
24.25593	15319
24.26165	13555
24.26737	14022
24.27310	13813
24.27882	13193
24.28453	12688
24.29025	14894
24.29598	13324
24.30170	14721
24.30742	13912
24.31315	13630
24.31887	12860
24.32458	14313
24.33032	14359
24.33603	12325
24.34175	14442
24.34748	13084
24.35320	13582
24.35892	11806
24.36465	14267
24.37037	13462
24.37608	12552
24.38182	11500
24.38753	10825
24.39325	11996
24.39898	12798
24.40470	12677
24.41042	13063
24.41615	13773
24.42187	14354
24.42758	14241
24.43332	12326
24.43903	13322
24.44475	12167
24.45048	13865
24.45620	13859
24.46192	12924
24.46765	12871
24.47337	12531
24.47908	12870
24.48480	11294
24.49053	12248
24.49625	12977
24.50197	11141
24.50770	14469
24.51342	13590
24.51913	11710
24.52487	12461
24.53058	13460
24.53630	12319
24.54203	12370
24.54775	13409
24.55347	12296
24.55920	12466
24.56492	11290
24.57063	11537
24.57637	12335
24.58208	13233
24.58780	11071
24.59353	13361
24.59925	13310
24.60497	14976
24.61070	14612
24.61642	15628
24.62213	18076
24.62787	18768
24.63358	20889
24.63930	22401
24.64502	22869
24.65075	23807
24.65647	20372
24.66218	21622
24.66792	20018
24.67363	18763
24.67935	15393
24.68508	16803
24.69080	14128
24.69652	14491
24.70225	12187
24.70797	12850
24.71368	13431
24.71942	12147
24.72513	12280
24.73085	12928
24.73658	11545
24.74230	12287
24.74802	12474
24.75375	12295
24.75947	12236
24.76518	12889
24.77092	13645
24.77663	12987
24.78235	12154
24.78808	12033
24.79380	12544
24.79952	12456
24.80525	11805
24.81097	12775
24.81668	12243
24.82242	12118
24.82813	13167
24.83385	10685
24.83957	12863
24.84530	12224
24.85102	11560
24.85673	13028
24.86247	11832
24.86818	12688
24.87390	12438
24.87963	12721
24.88535	12589
24.89107	12259
24.89680	13081
24.90252	11761
24.90823	11458
24.91397	13177
24.91968	11827
24.92540	11089
24.93113	11538
24.93685	11881
24.94257	12750
24.94830	11566
24.95402	11469
24.95973	12501
24.96547	13137
24.97118	11532
24.97690	11865
24.98263	14044
24.98835	11559
24.99407	13319
24.99980	13207
25.00552	11747
25.01123	11428
25.01695	11606
25.02268	12321
25.02840	12538
25.03412	11863
25.03985	12097
25.04557	12167
25.05128	12293
25.05702	11970
25.06273	13056
25.06845	12892
25.07418	12258
25.07990	12238
25.08562	13679
25.09135	12834
25.09707	11890
25.10278	12001
25.10852	11410
25.11423	11244
25.11995	11473
25.12568	11645
25.13140	11265
25.13712	11123
25.14285	11268
25.14857	12768
25.15428	11887
25.16002	12509
25.16573	11775
25.17145	11557
25.17718	13042
25.18290	12279
25.18862	12337
25.19433	11427
25.20007	10955
25.20578	12125
25.21150	10975
25.21723	12343
25.22295	12294
25.22867	12774
25.23440	14238
25.24012	11830
25.24583	13197
25.25157	11623
25.25728	12152
25.26300	12192
25.26873	13162
25.27445	11986
25.28017	11385
25.28590	11515
25.29162	12265
25.29733	12792
25.30307	12664
25.30878	12361
25.31450	11979
25.32023	10958
25.32595	12291
25.33167	12097
25.33740	11660
25.34312	11540
25.34883	11924
25.35457	12386
25.36028	12475
25.36600	12205
25.37172	12032
25.37745	12354
25.38317	10405
25.38888	12203
25.39462	12785
25.40033	11515
25.40605	11874
25.41178	11218
25.41750	10874
25.42322	13123
25.42895	12465
25.43467	11664
25.44038	11678
25.44612	12616
25.45183	11982
25.45755	12856
25.46328	11278
25.46900	12607
25.47472	12173
25.48045	11948
25.48617	11733
25.49188	11352
25.49762	13736
25.50333	11466
25.50905	12201
25.51478	13071
25.52050	11471
25.52622	11372
25.53195	11813
25.53767	12446
25.54338	12037
25.54912	12234
25.55483	11061
25.56055	10698
25.56627	11909
25.57200	11762
25.57772	12380
25.58343	12089
25.58917	12444
25.59488	10032
25.60060	11426
25.60633	11277
25.61205	12062
25.61777	12221
25.62350	11231
25.62922	11346
25.63493	11982
25.64067	12246
25.64638	12013
25.65210	11362
25.65783	13236
25.66355	10789
25.66927	11948
25.67500	11818
25.68072	11617
25.68643	13006
25.69217	11639
25.69788	11657
25.70360	12325
25.70933	12204
25.71505	11866
25.72077	12409
25.72650	12299
25.73222	12333
25.73793	12076
25.74365	11546
25.74938	11715
25.75510	12497
25.76082	11724
25.76655	11038
25.77227	12532
25.77798	11499
25.78372	12080
25.78943	12572
25.79515	10858
25.80088	11439
25.80660	11338
25.81232	10633
25.81805	11593
25.82377	12008
25.82948	11387
25.83522	11644
25.84093	11718
25.84665	11798
25.85238	11508
25.85810	10481
25.86382	10227
25.86955	11463
25.87527	12429
25.88098	10848
25.88672	10021
25.89243	11118
25.89815	10492
25.90388	12003
25.90960	12314
25.91532	11719
25.92103	12059
25.92677	12629
25.93248	10984
25.93820	11764
25.94393	11775
25.94965	11170
25.95537	11252
25.96110	11024
25.96682	10699
25.97253	12087
25.97827	11703
25.98398	11926
25.98970	11567
25.99543	12049
26.00115	12465
26.00687	12721
26.01260	11785
26.01832	11800
26.02403	10660
26.02977	11629
26.03548	11229
26.04120	12927
26.04693	12205
26.05265	11057
26.05837	11655
26.06410	11382
26.06982	11237
26.07553	10882
26.08127	13674
26.08698	11726
26.09270	12893
26.09842	12798
26.10415	12014
26.10987	11675
26.11558	10558
26.12132	11463
26.12703	11199
26.13275	12576
26.13848	11224
26.14420	12193
26.14992	12152
26.15565	11334
26.16137	12444
26.16708	11307
26.17282	11747
26.17853	10724
26.18425	13874
26.18998	12231
26.19570	16192
26.20142	17265
26.20715	23698
26.21287	27535
26.21858	38410
26.22432	50742
26.23003	61432
26.23575	71569
26.24148	85570
26.24720	96737
26.25292	107329
26.25865	115884
26.26437	117704
26.27008	108723
26.27580	102546
26.28153	91389
26.28725	80692
26.29297	67653
26.29870	56703
26.30442	45232
26.31013	38191
26.31587	32259
26.32158	29985
26.32730	26548
26.33303	26265
26.33875	24102
26.34447	22160
26.35020	20436
26.35592	20844
26.36163	18923
26.36737	19667
26.37308	18815
26.37880	17864
26.38453	17278
26.39025	19196
26.39597	17528
26.40170	16453
26.40742	18248
26.41313	18163
26.41887	18844
26.42458	18240
26.43030	17411
26.43603	15756
26.44175	17612
26.44747	17384
26.45320	17809
26.45892	18063
26.46463	15945
26.47035	16234
26.47608	16838
26.48180	16346
26.48752	16746
26.49325	15446
26.49897	16211
26.50468	15845
26.51042	15887
26.51613	16866
26.52185	15514
26.52758	14393
26.53330	16156
26.53902	14953
26.54475	16092
26.55047	16989
26.55618	14326
26.56192	14845
26.56763	16342
26.57335	13719
26.57908	16695
26.58480	15932
26.59052	13325
26.59625	15625
26.60197	15197
26.60768	14269
26.61342	16782
26.61913	14073
26.62485	14438
26.63058	15174
26.63630	13080
26.64202	14767
26.64773	14954
26.65347	13229
26.65918	15015
26.66490	14377
26.67063	14885
26.67635	14271
26.68207	15761
26.68780	15081
26.69352	15481
26.69923	13061
26.70497	13685
26.71068	14454
26.71640	13733
26.72213	14438
26.72785	14217
26.73357	12878
26.73930	14079
26.74502	14819
26.75073	12930
26.75647	13817
26.76218	14037
26.76790	13455
26.77363	13721
26.77935	14003
26.78507	14575
26.79080	13453
26.79652	12949
26.80223	14104
26.80797	13333
26.81368	13492
26.81940	14308
26.82512	14134
26.83085	13847
26.83657	11808
26.84228	13505
26.84802	14239
26.85373	13700
26.85945	13803
26.86518	13473
26.87090	14598
26.87662	11990
26.88235	14909
26.88807	13528
26.89378	13200
26.89952	13018
26.90523	14034
26.91095	12493
26.91668	13071
26.92240	13188
26.92812	12782
26.93385	12900
26.93957	13433
26.94528	12623
26.95102	14012
26.95673	12883
26.96245	13007
26.96818	12170
26.97390	12465
26.97962	12337
26.98535	13394
26.99107	12923
26.99678	12564
27.00250	13830
27.00823	12771
27.01395	13187
27.01967	12841
27.02540	13927
27.03112	12798
27.03683	11861
27.04257	14163
27.04828	13716
27.05400	14473
27.05973	12297
27.06545	12853
27.07117	13243
27.07690	14897
27.08262	14842
27.08833	16030
27.09407	15783
27.09978	16042
27.10550	17177
27.11123	16956
27.11695	17322
27.12267	19630
27.12840	21165
27.13412	18668
27.13983	20395
27.14557	20640
27.15128	19870
27.15700	18899
27.16273	16900
27.16845	19290
27.17417	17947
27.17988	16532
27.18562	14765
27.19133	15465
27.19705	15276
27.20278	15858
27.20850	13559
27.21422	14466
27.21995	12949
27.22567	13325
27.23138	13576
27.23712	13269
27.24283	11885
27.24855	13682
27.25428	14436
27.26000	12188
27.26572	12279
27.27145	13063
27.27717	12476
27.28288	12031
27.28862	12645
27.29433	11856
27.30005	13495
27.30578	13092
27.31150	12133
27.31722	12958
27.32295	13059
27.32867	12477
27.33438	11858
27.34012	12620
27.34583	14133
27.35155	12153
27.35727	11247
27.36300	12277
27.36872	11648
27.37443	12275
27.38017	14723
27.38588	13293
27.39160	12933
27.39733	12383
27.40305	12462
27.40877	10879
27.41450	12819
27.42022	12777
27.42593	12788
27.43167	12808
27.43738	11767
27.44310	11569
27.44883	11513
27.45455	11507
27.46027	12988
27.46600	13725
27.47172	12301
27.47743	12402
27.48317	13653
27.48888	13046
27.49460	12611
27.50033	12311
27.50605	10943
27.51177	13416
27.51750	12209
27.52322	12077
27.52893	11626
27.53467	12289
27.54038	12997
27.54610	12147
27.55182	12846
27.55755	11720
27.56327	12744
27.56898	12023
27.57472	12760
27.58043	12439
27.58615	11165
27.59188	11894
27.59760	13191
27.60332	12254
27.60905	13971
27.61477	12345
27.62048	12336
27.62622	11809
27.63193	12491
27.63765	12692
27.64338	12512
27.64910	12244
27.65482	12309
27.66055	11732
27.66627	10611
27.67198	11657
27.67772	12584
27.68343	12951
27.68915	12568
27.69488	12277
27.70060	12111
27.70632	12173
27.71205	11689
27.71777	12297
27.72348	12287
27.72920	10629
27.73493	12726
27.74065	13109
27.74637	12672
27.75210	9875
27.75782	12602
27.76353	12436
27.76927	10994
27.77498	11331
27.78070	12905
27.78643	12707
27.79215	13515
27.79787	12556
27.80360	11345
27.80932	11738
27.81503	11918
27.82077	12364
27.82648	12889
27.83220	12276
27.83793	11430
27.84365	11695
27.84937	13059
27.85510	12542
27.86082	13319
27.86653	13587
27.87227	12070
27.87798	12708
27.88370	11552
27.88943	11907
27.89515	12048
27.90087	11845
27.90658	12885
27.91232	12549
27.91803	11755
27.92375	12014
27.92948	11483
27.93520	13014
27.94092	12667
27.94665	11775
27.95237	11282
27.95808	11187
27.96382	12550
27.96953	11520
27.97525	12230
27.98098	11840
27.98670	12627
27.99242	11937
27.99815	11053
28.00387	10707
28.00958	13357
28.01532	11593
28.02103	11883
28.02675	11366
28.03248	11729
28.03820	11471
28.04392	12526
28.04965	11459
28.05537	12807
28.06108	12346
28.06682	11867
28.07253	12244
28.07825	13166
28.08397	12517
28.08970	13897
28.09542	11794
28.10113	12749
28.10687	12386
28.11258	12154
28.11830	14092
28.12403	13495
28.12975	11063
28.13547	11597
28.14120	11160
28.14692	11201
28.15263	12961
28.15837	10530
28.16408	10498
28.16980	12331
28.17553	11324
28.18125	12625
28.18697	12490
28.19270	13321
28.19842	10804
28.20413	11562
28.20987	11178
28.21558	11736
28.22130	11681
28.22703	13036
28.23275	10476
28.23847	12010
28.24420	12029
28.24992	10515
28.25563	12960
28.26137	13175
28.26708	11164
28.27280	14220
28.27852	12428
28.28425	11881
28.28997	12532
28.29568	11013
28.30142	12967
28.30713	11482
28.31285	11061
28.31858	11019
28.32430	10342
28.33002	13001
28.33575	11395
28.34147	11758
28.34718	11167
28.35292	11197
28.35863	10359
28.36435	11113
28.37008	11850
28.37580	11955
28.38152	11977
28.38725	11391
28.39297	12061
28.39868	11603
28.40442	10412
28.41013	10634
28.41585	12001
28.42158	11071
28.42730	10491
28.43302	12407
28.43875	11402
28.44447	11596
28.45018	10959
28.45590	12745
28.46163	12687
28.46735	11727
28.47307	12304
28.47880	11945
28.48452	10577
28.49023	13385
28.49597	12583
28.50168	11580
28.50740	10919
28.51313	11662
28.51885	11417
28.52457	11447
28.53030	11239
28.53602	10448
28.54173	11490
28.54747	10280
28.55318	11205
28.55890	11194
28.56463	10872
28.57035	12025
28.57607	10763
28.58180	10636
28.58752	10926
28.59323	10906
28.59897	10654
28.60468	11345
28.61040	11261
28.61613	11127
28.62185	9794
28.62757	12961
28.63328	10669
28.63902	11396
28.64473	9852
28.65045	10647
28.65618	12418
28.66190	10799
28.66762	12276
28.67335	11749
28.67907	10969
28.68478	10215
28.69052	9870
28.69623	11512
28.70195	12242
28.70768	11010
28.71340	11176
28.71912	12918
28.72485	11455
28.73057	11784
28.73628	11880
28.74202	9824
28.74773	11929
28.75345	11645
28.75918	11871
28.76490	10182
28.77062	11221
28.77635	11595
28.78207	11544
28.78778	11559
28.79352	11705
28.79923	11575
28.80495	11504
28.81067	10869
28.81640	11765
28.82212	11278
28.82783	11435
28.83357	11795
28.83928	10480
28.84500	10679
28.85073	11404
28.85645	10162
28.86217	10754
28.86790	10468
28.87362	12326
28.87933	12701
28.88507	10276
28.89078	12156
28.89650	13030
28.90223	11777
28.90795	10167
28.91367	11160
28.91940	11602
28.92512	9901
28.93083	10925
28.93657	10826
28.94228	10789
28.94800	11365
28.95373	11765
28.95945	11217
28.96517	11561
28.97090	11685
28.97662	11294
28.98233	10898
28.98805	12005
28.99378	11962
28.99950	11036
29.00522	11491
29.01095	11175
29.01667	10887
29.02238	10624
29.02812	10959
29.03383	10270
29.03955	10567
29.04528	11759
29.05100	11408
29.05672	8998
29.06245	10158
29.06817	10678
29.07388	11376
29.07962	10740
29.08533	11308
29.09105	11228
29.09678	11587
29.10250	12181
29.10822	10139
29.11395	12308
29.11967	10905
29.12538	11595
29.13112	10293
29.13683	11975
29.14255	10977
29.14828	10258
29.15400	10082
29.15972	12257
29.16543	10602
29.17117	11777
29.17688	11940
29.18260	11825
29.18833	11785
29.19405	10945
29.19977	10949
29.20550	11835
29.21122	11375
29.21693	10211
29.22267	11617
29.22838	11053
29.23410	10791
29.23983	10636
29.24555	10918
29.25127	10925
29.25700	11151
29.26272	12521
29.26843	11085
29.27417	12071
29.27988	12269
29.28560	11176
29.29133	12102
29.29705	12223
29.30277	10609
29.30850	11454
29.31422	11399
29.31993	10917
29.32567	12205
29.33138	10241
29.33710	11112
29.34282	11996
29.34855	11178
29.35427	10973
29.35998	12419
29.36572	10543
29.37143	9989
29.37715	11571
29.38288	11284
29.38860	10561
29.39432	12285
29.40005	9886
29.40577	11198
29.41148	10771
29.41722	11727
29.42293	11046
29.42865	11211
29.43438	10197
29.44010	10555
29.44582	11401
29.45155	11675
29.45727	11031
29.46298	11860
29.46872	11949
29.47443	11255
29.48015	11724
29.48588	11798
29.49160	11648
29.49732	10744
29.50305	11898
29.50877	11269
29.51448	11975
29.52022	10572
29.52593	11114
29.53165	11196
29.53737	10968
29.54310	10318
29.54882	12643
29.55453	10003
29.56027	11194
29.56598	10814
29.57170	9473
29.57743	10327
29.58315	10114
29.58887	11485
29.59460	11377
29.60032	11356
29.60603	9762
29.61177	11405
29.61748	10132
29.62320	12589
29.62893	11619
29.63465	12305
29.64037	13052
29.64610	10768
29.65182	11194
29.65753	10905
29.66327	13216
29.66898	10268
29.67470	11436
29.68043	10739
29.68615	11213
29.69187	10649
29.69760	10248
29.70332	10150
29.70903	12173
29.71475	11725
29.72048	11804
29.72620	12244
29.73192	10608
29.73765	10883
29.74337	11767
29.74908	10917
29.75482	11465
29.76053	11487
29.76625	11376
29.77198	10072
29.77770	11440
29.78342	10727
29.78915	10995
29.79487	9968
29.80058	10198
29.80632	12073
29.81203	12114
29.81775	11145
29.82348	12256
29.82920	12815
29.83492	11080
29.84065	11484
29.84637	12423
29.85208	11289
29.85782	10534
29.86353	12910
29.86925	10479
29.87498	12298
29.88070	11791
29.88642	10837
29.89213	11183
29.89787	11462
29.90358	11011
29.90930	11889
29.91503	12048
29.92075	11740
29.92647	11122
29.93220	12257
29.93792	11739
29.94363	12022
29.94937	11824
29.95508	11801
29.96080	10962
29.96653	11460
29.97225	10756
29.97797	11963
29.98370	12252
29.98942	11493
