D:\MassHunter\GCMS\1\data\2025\Quentin\QD_250515_MONITORING_NMe2_24h_3uL_inj.D Fri May 16 16:04:25 2025
Start of data points
6.04295,37731
6.04867,33928
6.05438,29015
6.06012,25197
6.06583,22701
6.07155,21135
6.07728,22739
6.08300,27274
6.08872,66305
6.09445,163755
6.10017,339980
6.10588,489696
6.11162,505975
6.11733,358856
6.12305,194521
6.12877,102236
6.13450,67409
6.14022,54952
6.14593,44563
6.15167,36731
6.15738,28297
6.16310,28523
6.16883,31051
6.17455,30030
6.18027,28709
6.18600,28295
6.19172,32488
6.19743,42083
6.20317,49536
6.20888,46862
6.21460,38301
6.22033,30867
6.22605,28490
6.23177,24072
6.23750,20837
6.24322,18805
6.24893,17151
6.25467,14459
6.26038,15034
6.26610,13454
6.27183,16252
6.27755,16761
6.28327,15180
6.28900,13607
6.29472,11071
6.30043,11574
6.30615,10918
6.31188,11353
6.31760,10824
6.32332,9414
6.32905,8284
6.33477,8941
6.34048,7767
6.34622,7168
6.35193,6256
6.35765,6220
6.36338,5676
6.36910,5462
6.37482,5812
6.38055,6650
6.38627,6742
6.39198,5856
6.39772,8394
6.40343,6851
6.40915,7119
6.41488,7973
6.42060,8268
6.42632,7387
6.43205,6403
6.43777,8104
6.44348,8947
6.44922,7505
6.45493,5764
6.46065,4847
6.46638,5759
6.47210,6672
6.47782,6702
6.48355,6610
6.48927,6367
6.49498,7467
6.50070,7250
6.50643,7655
6.51215,9753
6.51787,10490
6.52360,10749
6.52932,9141
6.53503,7570
6.54077,6532
6.54648,7872
6.55220,7018
6.55793,7729
6.56365,7413
6.56937,8057
6.57510,9524
6.58082,9635
6.58653,8707
6.59227,9115
6.59798,10600
6.60370,8297
6.60943,11028
6.61515,8880
6.62087,9461
6.62660,10163
6.63232,8150
6.63803,8825
6.64377,8175
6.64948,7849
6.65520,7175
6.66093,7235
6.66665,7463
6.67237,8175
6.67808,6296
6.68382,6899
6.68953,7892
6.69525,12900
6.70098,22237
6.70670,32536
6.71242,34641
6.71815,30695
6.72387,21400
6.72958,14202
6.73532,11177
6.74103,9774
6.74675,10184
6.75248,9680
6.75820,12066
6.76392,11082
6.76965,10718
6.77537,10424
6.78108,10128
6.78682,10177
6.79253,10073
6.79825,11500
6.80398,10589
6.80970,10353
6.81542,10347
6.82115,10194
6.82687,10710
6.83258,10752
6.83832,10085
6.84403,9352
6.84975,7944
6.85547,6731
6.86120,5041
6.86692,6302
6.87263,5762
6.87837,5262
6.88408,4702
6.88980,4799
6.89553,6849
6.90125,6007
6.90697,5778
6.91270,6544
6.91842,5737
6.92413,4321
6.92987,5419
6.93558,5710
6.94130,4990
6.94703,5491
6.95275,5983
6.95847,7935
6.96420,9519
6.96992,9092
6.97563,9022
6.98137,6951
6.98708,6404
6.99280,5256
6.99853,4973
7.00425,4506
7.00997,3940
7.01570,6429
7.02142,4127
7.02713,4948
7.03285,5085
7.03858,3882
7.04430,4200
7.05002,3061
7.05575,4007
7.06147,4688
7.06718,4255
7.07292,5006
7.07863,3845
7.08435,4404
7.09008,3951
7.09580,3413
7.10152,3011
7.10725,2630
7.11297,3354
7.11868,3220
7.12442,3112
7.13013,3608
7.13585,2848
7.14158,3904
7.14730,3670
7.15302,3054
7.15875,3022
7.16447,2498
7.17018,2431
7.17592,2434
7.18163,2529
7.18735,3327
7.19308,2906
7.19880,3869
7.20452,4262
7.21023,4534
7.21597,6246
7.22168,5092
7.22740,4791
7.23313,4136
7.23885,3603
7.24457,3091
7.25030,2785
7.25602,3049
7.26173,4256
7.26747,4362
7.27318,5803
7.27890,7074
7.28463,6018
7.29035,4917
7.29607,4186
7.30180,3455
7.30752,3419
7.31323,4304
7.31897,4059
7.32468,4824
7.33040,5466
7.33613,5233
7.34185,4545
7.34757,4217
7.35330,2831
7.35902,3523
7.36473,2858
7.37047,2166
7.37618,3152
7.38190,3269
7.38762,3091
7.39335,2270
7.39907,3195
7.40478,2911
7.41052,4159
7.41623,2271
7.42195,2465
7.42768,2625
7.43340,2942
7.43912,2812
7.44485,2402
7.45057,2506
7.45628,3808
7.46202,4127
7.46773,9509
7.47345,22123
7.47918,48479
7.48490,79542
7.49062,96558
7.49635,96116
7.50207,70794
7.50778,41551
7.51352,22479
7.51923,14659
7.52495,14444
7.53068,16283
7.53640,17658
7.54212,15988
7.54785,16039
7.55357,12572
7.55928,8675
7.56500,8398
7.57073,7253
7.57645,5471
7.58217,4573
7.58790,3682
7.59362,3718
7.59933,3531
7.60507,3181
7.61078,3825
7.61650,3283
7.62223,4116
7.62795,4252
7.63367,3175
7.63940,3315
7.64512,3951
7.65083,3316
7.65657,3252
7.66228,2097
7.66800,3094
7.67373,3285
7.67945,3587
7.68517,3182
7.69090,3508
7.69662,4148
7.70233,3882
7.70807,3514
7.71378,3377
7.71950,3459
7.72523,3209
7.73095,2802
7.73667,3291
7.74240,3151
7.74812,3589
7.75383,4795
7.75955,4385
7.76528,3528
7.77100,3174
7.77672,3678
7.78245,2826
7.78817,2800
7.79388,2673
7.79962,3037
7.80533,2164
7.81105,2736
7.81678,3028
7.82250,2080
7.82822,1828
7.83395,2396
7.83967,1951
7.84538,2555
7.85112,1745
7.85683,2063
7.86255,2156
7.86828,2106
7.87400,2025
7.87972,2053
7.88545,2388
7.89117,2612
7.89688,2651
7.90262,2326
7.90833,2383
7.91405,2475
7.91978,2593
7.92550,1913
7.93122,2854
7.93693,2001
7.94267,1987
7.94838,2652
7.95410,2961
7.95983,2947
7.96555,3166
7.97127,3052
7.97700,2297
7.98272,2140
7.98843,2220
7.99417,2737
7.99988,2770
8.00560,2317
8.01133,2616
8.01705,1801
8.02277,2704
8.02850,3073
8.03422,2540
8.03993,2883
8.04567,2859
8.05138,2568
8.05710,2416
8.06283,2778
8.06855,2916
8.07427,2993
8.08000,2527
8.08572,3768
8.09143,2879
8.09717,1999
8.10288,2818
8.10860,3085
8.11432,2968
8.12005,3206
8.12577,2403
8.13148,2938
8.13722,3547
8.14293,4548
8.14865,5009
8.15438,8458
8.16010,12525
8.16582,14655
8.17155,18239
8.17727,19494
8.18298,19078
8.18872,15899
8.19443,11499
8.20015,7917
8.20588,5746
8.21160,4668
8.21732,3966
8.22305,3193
8.22877,2499
8.23448,2137
8.24022,2980
8.24593,3013
8.25165,2719
8.25738,3692
8.26310,3517
8.26882,2121
8.27455,2735
8.28027,2858
8.28598,3539
8.29170,2539
8.29743,2380
8.30315,2396
8.30887,1680
8.31460,2181
8.32032,2898
8.32603,2494
8.33177,2698
8.33748,2130
8.34320,3235
8.34893,2506
8.35465,3148
8.36037,3702
8.36610,3150
8.37182,3660
8.37753,3948
8.38327,3100
8.38898,4303
8.39470,2728
8.40043,2417
8.40615,2981
8.41187,2375
8.41760,2476
8.42332,2248
8.42903,2434
8.43477,2870
8.44048,2638
8.44620,4079
8.45193,2761
8.45765,2648
8.46337,3193
8.46910,2901
8.47482,2355
8.48053,2055
8.48625,2987
8.49198,3380
8.49770,3260
8.50342,2195
8.50915,1982
8.51487,2552
8.52058,2363
8.52632,2378
8.53203,2159
8.53775,2582
8.54348,3490
8.54920,3084
8.55492,4589
8.56065,4462
8.56637,4249
8.57208,3768
8.57782,2326
8.58353,2701
8.58925,2695
8.59498,2632
8.60070,2592
8.60642,2328
8.61215,1882
8.61787,2368
8.62358,2032
8.62932,1827
8.63503,1639
8.64075,3169
8.64647,2699
8.65220,3412
8.65792,3550
8.66363,3106
8.66937,2699
8.67508,1874
8.68080,2311
8.68653,3374
8.69225,2755
8.69797,2399
8.70370,2966
8.70942,2090
8.71513,2380
8.72087,2361
8.72658,3340
8.73230,2700
8.73803,2825
8.74375,3235
8.74947,3348
8.75520,5091
8.76092,9954
8.76663,11365
8.77237,13484
8.77808,11605
8.78380,9656
8.78953,7182
8.79525,5312
8.80097,3955
8.80670,3857
8.81242,4322
8.81813,4203
8.82387,3551
8.82958,5029
8.83530,4242
8.84102,3673
8.84675,3615
8.85247,1971
8.85818,3540
8.86392,3076
8.86963,3248
8.87535,2310
8.88108,3300
8.88680,3594
8.89252,2504
8.89825,3019
8.90397,3018
8.90968,3178
8.91542,1522
8.92113,2390
8.92685,1647
8.93258,2004
8.93830,3125
8.94402,1916
8.94975,2480
8.95547,2149
8.96118,3211
8.96692,2457
8.97263,2495
8.97835,2106
8.98408,1795
8.98980,2290
8.99552,1777
9.00125,2698
9.00697,2375
9.01268,2167
9.01840,2019
9.02413,3961
9.02985,4346
9.03557,2669
9.04130,4198
9.04702,2405
9.05273,2570
9.05847,3220
9.06418,2975
9.06990,1867
9.07563,2506
9.08135,2167
9.08707,2479
9.09280,2116
9.09852,2268
9.10423,2166
9.10997,2372
9.11568,2388
9.12140,2215
9.12713,2678
9.13285,2037
9.13857,2838
9.14430,3259
9.15002,5352
9.15573,7732
9.16147,7750
9.16718,7160
9.17290,5026
9.17863,3931
9.18435,3424
9.19007,2976
9.19578,2958
9.20152,2283
9.20723,2678
9.21295,2749
9.21868,2412
9.22440,2896
9.23012,2209
9.23585,2040
9.24157,2319
9.24728,2342
9.25302,2940
9.25873,4307
9.26445,7440
9.27018,7818
9.27590,8221
9.28162,4976
9.28735,5526
9.29307,3948
9.29878,3371
9.30452,2765
9.31023,3513
9.31595,2890
9.32168,3206
9.32740,3132
9.33312,3416
9.33885,2793
9.34457,2715
9.35028,3479
9.35602,3924
9.36173,3016
9.36745,2646
9.37317,1982
9.37890,2457
9.38462,3105
9.39033,2502
9.39607,2739
9.40178,1698
9.40750,2280
9.41323,2287
9.41895,2167
9.42467,2631
9.43040,3557
9.43612,3046
9.44183,3108
9.44757,2075
9.45328,2715
9.45900,2685
9.46473,2609
9.47045,2021
9.47617,1949
9.48190,2392
9.48762,2376
9.49333,2447
9.49907,2821
9.50478,3050
9.51050,2031
9.51623,1966
9.52195,2053
9.52767,2281
9.53340,2397
9.53912,2013
9.54483,2345
9.55057,2025
9.55628,2643
9.56200,2673
9.56772,2496
9.57345,2042
9.57917,3640
9.58488,3476
9.59062,2991
9.59633,3185
9.60205,2296
9.60778,2524
9.61350,2415
9.61922,2221
9.62495,1996
9.63067,2116
9.63638,2043
9.64212,2262
9.64783,2255
9.65355,1655
9.65928,2004
9.66500,1759
9.67072,2060
9.67645,2307
9.68217,1686
9.68788,1321
9.69362,2031
9.69933,2550
9.70505,2725
9.71078,2678
9.71650,2040
9.72222,2491
9.72795,1872
9.73367,2304
9.73938,2252
9.74510,2446
9.75083,2142
9.75655,2603
9.76227,1621
9.76800,1652
9.77372,2343
9.77943,2182
9.78517,2944
9.79088,2747
9.79660,1932
9.80233,1954
9.80805,2204
9.81377,2840
9.81950,1943
9.82522,1731
9.83093,2168
9.83667,2784
9.84238,2629
9.84810,2715
9.85383,2022
9.85955,1737
9.86527,1764
9.87100,1922
9.87672,2375
9.88243,2399
9.88817,2940
9.89388,1937
9.89960,2300
9.90533,5250
9.91105,12309
9.91677,26057
9.92248,56860
9.92822,117272
9.93393,241768
9.93965,434968
9.94538,614687
9.95110,672861
9.95682,547671
9.96255,317099
9.96827,141388
9.97398,50923
9.97972,17736
9.98543,7898
9.99115,4788
9.99688,3211
10.00260,3179
10.00832,3098
10.01405,2173
10.01977,3212
10.02548,2874
10.03122,2379
10.03693,1889
10.04265,2921
10.04838,2820
10.05410,2378
10.05982,2381
10.06555,2262
10.07127,2571
10.07698,3266
10.08272,3433
10.08843,4552
10.09415,3296
10.09987,2547
10.10560,2364
10.11132,2995
10.11703,2694
10.12277,2476
10.12848,2640
10.13420,3497
10.13993,2815
10.14565,2950
10.15137,2868
10.15710,3851
10.16282,2932
10.16853,3205
10.17427,3229
10.17998,3404
10.18570,3427
10.19143,2838
10.19715,3802
10.20287,3644
10.20860,2325
10.21432,3359
10.22003,3193
10.22577,3765
10.23148,3289
10.23720,2846
10.24293,2908
10.24865,2452
10.25437,2491
10.26010,2469
10.26582,2342
10.27153,2156
10.27725,2098
10.28298,3082
10.28870,1569
10.29442,2579
10.30015,2287
10.30587,2640
10.31158,2356
10.31732,2472
10.32303,3475
10.32875,2867
10.33448,2352
10.34020,2400
10.34592,2556
10.35165,2150
10.35737,1713
10.36308,2608
10.36882,2452
10.37453,2625
10.38025,2564
10.38598,2880
10.39170,1869
10.39742,2603
10.40315,2224
10.40887,2542
10.41458,2322
10.42032,1342
10.42603,2056
10.43175,2847
10.43748,4219
10.44320,3897
10.44892,3933
10.45463,2977
10.46037,3390
10.46608,3069
10.47180,4079
10.47753,3927
10.48325,4019
10.48897,3698
10.49470,3095
10.50042,2671
10.50613,2724
10.51187,3094
10.51758,3551
10.52330,2598
10.52903,2471
10.53475,2552
10.54047,2947
10.54620,2107
10.55192,2657
10.55763,2418
10.56337,3058
10.56908,2236
10.57480,2216
10.58053,2589
10.58625,2628
10.59197,2706
10.59770,2328
10.60342,2553
10.60913,2562
10.61487,2959
10.62058,3345
10.62630,2997
10.63203,3110
10.63775,2673
10.64347,1945
10.64918,3126
10.65492,2313
10.66063,2380
10.66635,2704
10.67208,2932
10.67780,3157
10.68352,2835
10.68925,2795
10.69497,1648
10.70068,2447
10.70642,2259
10.71213,2350
10.71785,2524
10.72358,2096
10.72930,2417
10.73502,1780
10.74075,2443
10.74647,1978
10.75218,2466
10.75792,1548
10.76363,2423
10.76935,2126
10.77508,1970
10.78080,2745
10.78652,2953
10.79225,3757
10.79797,3417
10.80368,3330
10.80942,2563
10.81513,2382
10.82085,2030
10.82657,1755
10.83230,2471
10.83802,2312
10.84373,1698
10.84947,2064
10.85518,2695
10.86090,2322
10.86663,2065
10.87235,2534
10.87807,2939
10.88380,2450
10.88952,1926
10.89523,2365
10.90097,2069
10.90668,2923
10.91240,2935
10.91813,3850
10.92385,5257
10.92957,5881
10.93530,5179
10.94102,4841
10.94673,2507
10.95247,2962
10.95818,2484
10.96390,1792
10.96963,3135
10.97535,2608
10.98107,3437
10.98680,2637
10.99252,1972
10.99823,2053
11.00395,2560
11.00968,2538
11.01540,2586
11.02112,2514
11.02685,2829
11.03257,2498
11.03828,3125
11.04402,2602
11.04973,2209
11.05545,2524
11.06118,1870
11.06690,2380
11.07262,3166
11.07835,3068
11.08407,3267
11.08978,2878
11.09552,3249
11.10123,2664
11.10695,2637
11.11268,2778
11.11840,2578
11.12412,2571
11.12985,2239
11.13557,2748
11.14128,1949
11.14702,2067
11.15273,1802
11.15845,2521
11.16418,2579
11.16990,2453
11.17562,2858
11.18133,2119
11.18707,2880
11.19278,2284
11.19850,2637
11.20423,2617
11.20995,2158
11.21567,2638
11.22140,2622
11.22712,3078
11.23283,2866
11.23857,2004
11.24428,1820
11.25000,2986
11.25573,2553
11.26145,1325
11.26717,2154
11.27290,2008
11.27862,2710
11.28433,1972
11.29007,2802
11.29578,1987
11.30150,2331
11.30723,2086
11.31295,2026
11.31867,2175
11.32440,2211
11.33012,2212
11.33583,2050
11.34157,1789
11.34728,2019
11.35300,1915
11.35872,1904
11.36445,2491
11.37017,2052
11.37588,2472
11.38162,2195
11.38733,2035
11.39305,2359
11.39878,1580
11.40450,2462
11.41022,2088
11.41595,2373
11.42167,1770
11.42738,2470
11.43312,2432
11.43883,3319
11.44455,4025
11.45028,5234
11.45600,4769
11.46172,5361
11.46745,3695
11.47317,2579
11.47888,2025
11.48462,2417
11.49033,2250
11.49605,2362
11.50178,2254
11.50750,1753
11.51322,2718
11.51895,2233
11.52467,2741
11.53038,2341
11.53612,2194
11.54183,1921
11.54755,2161
11.55327,2113
11.55900,2647
11.56472,2628
11.57043,2552
11.57617,2262
11.58188,2552
11.58760,2328
11.59333,3137
11.59905,3385
11.60477,2541
11.61050,3044
11.61622,2440
11.62193,2440
11.62767,2808
11.63338,2629
11.63910,3197
11.64483,2301
11.65055,2614
11.65627,2021
11.66200,2286
11.66772,2173
11.67343,1788
11.67917,2562
11.68488,2566
11.69060,2401
11.69633,1890
11.70205,2743
11.70777,2331
11.71348,2010
11.71922,2119
11.72493,2326
11.73065,2336
11.73638,2745
11.74210,2599
11.74782,1634
11.75355,1667
11.75927,1958
11.76498,2644
11.77072,2577
11.77643,2298
11.78215,2945
11.78788,3809
11.79360,3817
11.79932,5191
11.80505,4019
11.81077,3490
11.81648,2981
11.82222,2955
11.82793,3075
11.83365,2511
11.83938,1691
11.84510,1933
11.85082,2083
11.85655,2908
11.86227,2221
11.86798,2381
11.87372,2157
11.87943,2312
11.88515,1599
11.89088,2203
11.89660,2123
11.90232,2067
11.90803,2133
11.91377,1690
11.91948,1817
11.92520,2637
11.93093,1814
11.93665,1853
11.94237,1871
11.94810,1843
11.95382,2631
11.95953,2534
11.96527,2915
11.97098,5815
11.97670,7994
11.98243,8225
11.98815,6849
11.99387,5220
11.99960,3402
12.00532,2841
12.01103,2494
12.01677,2357
12.02248,2272
12.02820,2227
12.03393,2103
12.03965,1871
12.04537,2701
12.05110,2751
12.05682,1770
12.06253,1679
12.06827,1935
12.07398,1704
12.07970,2406
12.08542,1975
12.09115,2266
12.09687,3056
12.10258,2486
12.10832,1900
12.11403,2359
12.11975,2317
12.12548,2146
12.13120,2780
12.13692,3319
12.14265,4141
12.14837,7975
12.15408,19526
12.15982,44957
12.16553,98851
12.17125,190576
12.17698,320864
12.18270,390826
12.18842,358694
12.19415,243927
12.19987,119070
12.20558,40157
12.21132,14322
12.21703,5611
12.22275,3750
12.22848,3736
12.23420,3532
12.23992,3499
12.24565,3732
12.25137,2195
12.25708,3821
12.26280,3064
12.26853,4158
12.27425,3845
12.27997,4199
12.28570,4260
12.29142,2820
12.29713,3496
12.30287,3687
12.30858,2528
12.31430,2306
12.32003,2618
12.32575,2616
12.33147,2968
12.33720,2603
12.34292,2810
12.34863,3176
12.35437,2868
12.36008,4585
12.36580,4191
12.37153,4656
12.37725,4328
12.38297,3642
12.38870,3115
12.39442,3415
12.40013,2709
12.40587,3158
12.41158,3383
12.41730,2686
12.42303,1742
12.42875,2680
12.43447,2611
12.44018,2473
12.44592,2971
12.45163,3277
12.45735,2973
12.46308,2127
12.46880,3147
12.47452,3339
12.48025,1840
12.48597,2539
12.49168,1945
12.49742,2932
12.50313,2453
12.50885,2731
12.51458,3392
12.52030,2783
12.52602,2495
12.53175,2328
12.53747,3425
12.54318,3025
12.54892,2814
12.55463,2041
12.56035,2460
12.56608,1849
12.57180,2912
12.57752,2494
12.58325,3439
12.58897,3298
12.59468,3447
12.60042,3122
12.60613,1964
12.61185,2175
12.61758,2400
12.62330,1541
12.62902,3058
12.63473,2842
12.64047,2873
12.64618,3223
12.65190,2523
12.65763,2989
12.66335,3482
12.66907,4681
12.67480,4199
12.68052,3180
12.68623,3300
12.69197,3708
12.69768,5122
12.70340,8706
12.70913,11009
12.71485,11722
12.72057,10170
12.72630,6361
12.73202,3955
12.73773,3726
12.74347,3779
12.74918,3603
12.75490,4148
12.76063,3362
12.76635,2450
12.77207,3182
12.77780,2986
12.78352,3232
12.78923,3725
12.79497,3430
12.80068,3318
12.80640,3487
12.81212,4368
12.81785,4213
12.82357,6302
12.82928,7047
12.83502,6247
12.84073,5156
12.84645,4952
12.85218,5059
12.85790,4307
12.86362,5344
12.86935,3429
12.87507,4440
12.88078,3176
12.88652,3916
12.89223,2585
12.89795,2965
12.90368,2799
12.90940,1999
12.91512,2751
12.92085,3181
12.92657,3546
12.93228,5847
12.93802,7527
12.94373,7901
12.94945,6535
12.95518,4402
12.96090,3910
12.96662,2597
12.97235,4053
12.97807,3377
12.98378,3807
12.98950,3977
12.99523,3496
13.00095,3479
13.00667,2908
13.01240,2826
13.01812,2277
13.02383,2439
13.02957,2981
13.03528,2431
13.04100,2937
13.04673,2571
13.05245,3488
13.05817,4821
13.06390,5619
13.06962,4942
13.07533,4165
13.08107,4162
13.08678,4852
13.09250,5196
13.09823,5038
13.10395,5897
13.10967,3805
13.11540,3852
13.12112,3270
13.12683,2547
13.13257,3166
13.13828,3346
13.14400,3185
13.14973,2614
13.15545,3616
13.16117,3465
13.16688,2664
13.17262,2863
13.17833,2016
13.18405,1920
13.18978,2554
13.19550,2375
13.20122,3610
13.20695,3707
13.21267,3647
13.21838,3876
13.22412,3875
13.22983,2936
13.23555,2790
13.24128,2295
13.24700,1886
13.25272,2286
13.25845,3633
13.26417,2578
13.26988,2831
13.27562,3879
13.28133,3587
13.28705,3233
13.29278,2606
13.29850,2444
13.30422,2772
13.30995,2816
13.31567,3153
13.32138,2772
13.32712,1923
13.33283,2676
13.33855,2027
13.34428,2115
13.35000,2260
13.35572,2917
13.36143,2595
13.36717,2662
13.37288,2638
13.37860,3945
13.38433,6008
13.39005,6567
13.39577,5717
13.40150,4824
13.40722,3760
13.41293,2927
13.41867,3319
13.42438,2500
13.43010,2671
13.43583,3408
13.44155,2781
13.44727,2975
13.45300,3123
13.45872,3960
13.46443,3630
13.47017,3677
13.47588,4915
13.48160,6198
13.48733,7931
13.49305,6788
13.49877,6803
13.50450,5446
13.51022,4444
13.51593,3778
13.52167,3709
13.52738,4760
13.53310,3973
13.53882,3800
13.54455,4251
13.55027,2851
13.55598,4071
13.56172,3361
13.56743,2788
13.57315,3475
13.57888,3417
13.58460,3064
13.59032,3030
13.59605,3028
13.60177,3728
13.60748,3493
13.61322,2733
13.61893,2750
13.62465,2725
13.63038,3211
13.63610,3332
13.64182,2571
13.64755,2798
13.65327,2773
13.65898,3135
13.66472,2944
13.67043,2981
13.67615,2241
13.68188,2651
13.68760,2350
13.69332,3165
13.69905,3269
13.70477,2414
13.71048,2514
13.71620,3738
13.72193,3160
13.72765,4313
13.73337,5182
13.73910,6419
13.74482,5464
13.75053,4385
13.75627,4939
13.76198,4134
13.76770,4037
13.77343,4595
13.77915,3543
13.78487,3895
13.79060,3949
13.79632,3630
13.80203,3729
13.80777,4294
13.81348,3520
13.81920,3613
13.82493,3687
13.83065,3159
13.83637,4640
13.84210,5712
13.84782,5554
13.85353,6861
13.85927,10564
13.86498,21573
13.87070,47334
13.87643,90088
13.88215,123810
13.88787,123065
13.89358,90909
13.89932,53788
13.90503,24808
13.91075,13875
13.91648,9480
13.92220,7403
13.92792,6736
13.93365,5324
13.93937,6012
13.94508,5358
13.95082,5226
13.95653,5184
13.96225,5034
13.96798,5474
13.97370,4675
13.97942,5168
13.98515,5086
13.99087,3961
13.99658,4082
14.00232,5021
14.00803,3802
14.01375,3992
14.01948,4209
14.02520,4601
14.03092,3373
14.03665,3417
14.04237,4149
14.04808,3358
14.05382,4696
14.05953,4000
14.06525,3668
14.07097,5267
14.07670,4153
14.08242,3222
14.08813,3068
14.09387,3764
14.09958,3336
14.10530,2510
14.11103,2706
14.11675,2418
14.12247,3506
14.12820,4172
14.13392,3184
14.13963,3259
14.14537,3541
14.15108,3992
14.15680,6026
14.16253,11108
14.16825,25209
14.17397,47346
14.17970,79183
14.18542,100387
14.19113,89549
14.19687,61713
14.20258,31601
14.20830,14854
14.21403,8314
14.21975,6024
14.22547,4026
14.23120,4044
14.23692,3638
14.24263,3369
14.24837,2832
14.25408,3165
14.25980,3850
14.26552,3973
14.27125,2683
14.27697,2803
14.28268,3449
14.28842,3168
14.29413,3376
14.29985,2064
14.30558,3546
14.31130,3672
14.31702,3169
14.32275,2585
14.32847,3309
14.33418,2820
14.33992,2673
14.34563,3221
14.35135,3896
14.35708,2261
14.36280,2733
14.36852,2379
14.37425,3175
14.37997,3269
14.38568,3557
14.39142,3043
14.39713,3893
14.40285,3689
14.40858,5283
14.41430,3066
14.42002,3641
14.42575,2619
14.43147,2981
14.43718,2838
14.44290,3543
14.44863,3174
14.45435,4323
14.46007,4337
14.46580,4100
14.47152,3861
14.47723,4300
14.48297,3246
14.48868,3122
14.49440,3451
14.50013,3217
14.50585,3759
14.51157,3562
14.51730,4329
14.52302,4652
14.52873,5643
14.53447,4639
14.54018,4043
14.54590,3629
14.55163,3559
14.55735,2817
14.56307,2823
14.56880,2253
14.57452,2988
14.58023,3184
14.58597,2569
14.59168,4071
14.59740,3405
14.60313,4530
14.60885,3278
14.61457,3654
14.62028,2983
14.62602,3620
14.63173,3361
14.63745,2838
14.64318,3169
14.64890,3342
14.65462,4094
14.66035,4282
14.66607,3649
14.67178,5206
14.67752,5996
14.68323,4404
14.68895,4241
14.69468,3658
14.70040,3929
14.70612,4964
14.71185,5825
14.71757,7386
14.72328,5571
14.72902,5188
14.73473,3784
14.74045,4829
14.74618,6048
14.75190,5439
14.75762,5582
14.76335,5260
14.76907,5029
14.77478,4098
14.78052,4347
14.78623,3640
14.79195,3124
14.79767,3027
14.80340,2057
14.80912,2859
14.81483,2666
14.82057,3682
14.82628,3239
14.83200,3050
14.83773,2123
14.84345,2689
14.84917,3572
14.85490,3170
14.86062,3269
14.86633,3803
14.87207,4155
14.87778,4426
14.88350,5649
14.88923,6824
14.89495,5474
14.90067,4683
14.90640,5666
14.91212,4609
14.91783,3212
14.92357,4281
14.92928,4541
14.93500,5925
14.94073,4226
14.94645,3974
14.95217,4367
14.95790,3466
14.96362,5281
14.96933,4614
14.97507,5901
14.98078,4455
14.98650,4542
14.99222,3512
14.99795,3031
15.00367,3683
15.00938,3154
15.01512,3249
15.02083,3670
15.02655,4094
15.03228,4347
15.03800,2806
15.04372,3736
15.04945,3084
15.05517,2860
15.06088,2988
15.06662,2231
15.07233,2890
15.07805,2593
15.08378,3743
15.08950,3599
15.09522,3472
15.10095,3474
15.10667,4042
15.11238,3105
15.11812,3056
15.12383,5238
15.12955,6999
15.13528,8008
15.14100,9916
15.14672,9824
15.15243,8196
15.15817,5823
15.16388,4470
15.16960,3019
15.17533,3550
15.18105,3373
15.18677,3100
15.19250,2853
15.19822,3245
15.20393,2898
15.20967,2833
15.21538,3631
15.22110,3376
15.22683,4309
15.23255,4182
15.23827,5713
15.24400,5579
15.24972,5167
15.25543,4699
15.26117,2938
15.26688,3603
15.27260,3453
15.27833,3165
15.28405,3689
15.28977,3056
15.29550,2826
15.30122,3780
15.30693,4215
15.31267,4007
15.31838,3053
15.32410,3760
15.32983,4696
15.33555,5586
15.34127,5523
15.34698,5964
15.35272,4816
15.35843,4302
15.36415,7099
15.36988,8795
15.37560,9380
15.38132,8894
15.38705,7829
15.39277,5284
15.39848,4574
15.40422,3532
15.40993,3784
15.41565,3104
15.42138,2982
15.42710,3230
15.43282,4245
15.43855,3944
15.44427,4513
15.44998,3699
15.45572,3751
15.46143,3279
15.46715,2534
15.47288,3386
15.47860,3061
15.48432,2977
15.49005,3089
15.49577,3816
15.50148,4180
15.50722,2919
15.51293,3135
15.51865,3416
15.52437,4034
15.53010,3529
15.53582,2778
15.54153,3041
15.54727,2684
15.55298,3813
15.55870,3007
15.56443,4005
15.57015,3761
15.57587,3688
15.58160,3700
15.58732,3649
15.59303,2865
15.59877,4120
15.60448,4207
15.61020,5293
15.61593,5297
15.62165,3550
15.62737,3426
15.63310,2660
15.63882,2772
15.64453,2093
15.65027,2860
15.65598,3866
15.66170,2339
15.66743,3358
15.67315,2873
15.67887,2681
15.68460,2664
15.69032,2551
15.69603,3579
15.70175,4002
15.70748,2804
15.71320,3537
15.71892,3474
15.72465,3679
15.73037,4451
15.73608,3355
15.74182,3096
15.74753,3322
15.75325,2376
15.75898,2278
15.76470,2179
15.77042,2568
15.77615,2315
15.78187,2711
15.78758,3042
15.79332,2522
15.79903,2590
15.80475,3324
15.81048,2706
15.81620,2156
15.82192,2433
15.82765,2441
15.83337,1977
15.83908,2776
15.84482,3730
15.85053,3268
15.85625,2769
15.86198,3014
15.86770,3078
15.87342,2433
15.87913,3005
15.88487,3333
15.89058,3590
15.89630,4650
15.90203,6767
15.90775,17069
15.91347,30227
15.91920,43946
15.92492,45719
15.93063,36740
15.93637,24817
15.94208,14216
15.94780,6406
15.95353,3958
15.95925,3763
15.96497,3240
15.97070,2585
15.97642,3025
15.98213,3230
15.98787,3175
15.99358,3019
15.99930,2431
16.00503,2233
16.01075,2559
16.01647,4304
16.02220,2707
16.02792,2617
16.03363,2931
16.03937,1909
16.04508,2383
16.05080,2297
16.05653,1384
16.06225,2427
16.06797,2190
16.07368,2444
16.07942,2477
16.08513,3373
16.09085,2166
16.09658,2336
16.10230,2642
16.10802,1736
16.11375,2021
16.11947,2539
16.12518,3087
16.13092,2678
16.13663,1664
16.14235,2920
16.14808,2124
16.15380,2062
16.15952,2436
16.16525,2826
16.17097,1492
16.17668,2982
16.18242,2351
16.18813,2634
16.19385,2463
16.19958,3419
16.20530,2388
16.21102,3045
16.21675,5715
16.22247,12559
16.22818,38357
16.23392,77347
16.23963,141065
16.24535,190476
16.25107,203146
16.25680,175893
16.26252,111218
16.26823,60714
16.27397,36387
16.27968,24046
16.28540,19548
16.29113,17319
16.29685,13624
16.30257,12807
16.30830,10797
16.31402,11370
16.31973,12226
16.32547,11222
16.33118,8780
16.33690,8051
16.34263,7825
16.34835,7325
16.35407,7371
16.35980,7845
16.36552,7513
16.37123,6426
16.37697,5494
16.38268,5819
16.38840,6055
16.39413,5462
16.39985,4759
16.40557,5437
16.41130,6316
16.41702,5838
16.42273,6404
16.42845,5620
16.43418,6541
16.43990,5294
16.44562,5395
16.45135,4612
16.45707,6634
16.46278,7313
16.46852,8047
16.47423,9721
16.47995,8624
16.48568,7554
16.49140,5675
16.49712,5365
16.50285,5216
16.50857,5518
16.51428,5518
16.52002,5374
16.52573,4300
16.53145,4145
16.53718,5341
16.54290,4733
16.54862,4651
16.55435,4594
16.56007,4447
16.56578,4320
16.57152,4058
16.57723,3033
16.58295,3827
16.58868,4137
16.59440,3279
16.60012,3047
16.60583,3967
16.61157,3418
16.61728,3567
16.62300,2933
16.62873,4069
16.63445,4698
16.64017,5817
16.64590,5621
16.65162,5124
16.65733,4064
16.66307,4532
16.66878,4001
16.67450,3816
16.68023,3473
16.68595,3760
16.69167,4290
16.69740,2976
16.70312,3230
16.70883,3233
16.71457,3318
16.72028,2831
16.72600,2529
16.73173,2925
16.73745,4373
16.74317,3947
16.74890,3453
16.75462,3651
16.76033,2510
16.76607,1925
16.77178,3095
16.77750,3183
16.78322,3197
16.78895,3615
16.79467,3517
16.80038,2943
16.80612,2529
16.81183,2888
16.81755,2648
16.82328,3485
16.82900,2845
16.83472,2346
16.84045,3146
16.84617,2929
16.85188,2903
16.85762,2446
16.86333,3107
16.86905,3342
16.87478,4324
16.88050,2073
16.88622,2561
16.89195,4195
16.89767,3142
16.90338,3111
16.90912,3279
16.91483,4226
16.92055,5095
16.92628,4287
16.93200,5275
16.93772,5706
16.94345,3853
16.94917,4075
16.95488,3721
16.96062,3694
16.96633,3073
16.97205,2689
16.97777,2648
16.98350,3449
16.98922,3435
16.99493,4262
17.00067,3493
17.00638,3085
17.01210,3526
17.01783,3644
17.02355,2647
17.02927,2880
17.03500,2697
17.04072,2891
17.04643,2628
17.05217,3276
17.05788,3427
17.06360,3648
17.06933,3545
17.07505,3767
17.08077,3484
17.08650,2548
17.09222,3216
17.09793,2984
17.10367,2763
17.10938,3031
17.11510,2835
17.12083,3535
17.12655,3099
17.13227,2759
17.13800,3652
17.14372,2945
17.14943,3004
17.15515,3522
17.16088,3050
17.16660,3102
17.17232,3245
17.17805,3284
17.18377,3608
17.18948,3208
17.19522,3081
17.20093,2474
17.20665,3658
17.21238,2344
17.21810,3813
17.22382,3571
17.22955,3406
17.23527,3443
17.24098,2757
17.24672,2465
17.25243,2625
17.25815,3973
17.26388,2806
17.26960,3733
17.27532,2218
17.28105,2786
17.28677,3127
17.29248,3098
17.29822,2652
17.30393,3129
17.30965,3901
17.31538,3351
17.32110,3869
17.32682,5489
17.33253,6775
17.33827,5719
17.34398,5042
17.34970,4825
17.35543,3561
17.36115,4609
17.36687,3461
17.37260,3447
17.37832,3322
17.38403,2668
17.38977,3158
17.39548,2479
17.40120,3881
17.40693,2938
17.41265,3741
17.41837,3717
17.42410,3289
17.42982,3280
17.43553,3064
17.44127,3850
17.44698,6725
17.45270,13192
17.45843,28461
17.46415,53755
17.46987,81215
17.47560,87678
17.48132,72861
17.48703,49933
17.49277,27570
17.49848,14582
17.50420,7524
17.50992,6855
17.51565,5095
17.52137,3773
17.52708,5019
17.53282,3379
17.53853,4588
17.54425,4305
17.54998,4860
17.55570,3863
17.56142,3428
17.56715,4107
17.57287,4157
17.57858,4234
17.58432,5239
17.59003,3610
17.59575,3606
17.60148,3140
17.60720,3211
17.61292,4752
17.61865,4122
17.62437,4943
17.63008,5358
17.63582,4681
17.64153,3492
17.64725,3981
17.65298,3622
17.65870,4263
17.66442,2664
17.67015,3467
17.67587,4358
17.68158,4202
17.68730,4131
17.69303,4634
17.69875,3393
17.70447,4395
17.71020,5028
17.71592,3655
17.72163,2982
17.72737,4457
17.73308,4400
17.73880,3841
17.74453,4000
17.75025,4525
17.75597,5424
17.76170,4027
17.76742,5084
17.77313,3791
17.77887,4292
17.78458,3708
17.79030,4249
17.79603,4545
17.80175,4477
17.80747,4514
17.81320,3699
17.81892,3182
17.82463,4353
17.83037,3353
17.83608,6098
17.84180,4856
17.84753,4711
17.85325,5321
17.85897,4052
17.86468,5545
17.87042,5632
17.87613,5043
17.88185,4059
17.88758,4424
17.89330,4970
17.89902,3851
17.90475,6556
17.91047,5253
17.91618,3782
17.92192,4134
17.92763,4306
17.93335,4112
17.93908,4748
17.94480,5016
17.95052,5866
17.95625,5525
17.96197,5013
17.96768,5701
17.97342,5442
17.97913,6897
17.98485,6623
17.99058,6983
17.99630,5753
18.00202,5953
18.00775,8263
18.01347,13169
18.01918,13995
18.02492,14729
18.03063,12737
18.03635,12257
18.04208,8325
18.04780,7479
18.05352,8134
18.05923,7789
18.06497,7507
18.07068,7030
18.07640,8192
18.08213,7692
18.08785,7384
18.09357,6869
18.09930,6455
18.10502,6366
18.11073,5642
18.11647,6633
18.12218,5017
18.12790,6893
18.13363,5844
18.13935,5976
18.14507,7052
18.15080,5787
18.15652,5723
18.16223,5788
18.16797,5817
18.17368,4952
18.17940,5084
18.18513,6182
18.19085,5328
18.19657,5422
18.20230,6386
18.20802,4620
18.21373,6024
18.21947,4610
18.22518,5119
18.23090,4713
18.23662,5312
18.24235,4535
18.24807,5154
18.25378,4991
18.25952,4290
18.26523,5048
18.27095,5170
18.27668,4937
18.28240,4553
18.28812,3972
18.29385,4215
18.29957,4392
18.30528,4641
18.31102,4001
18.31673,3832
18.32245,3430
18.32818,4838
18.33390,3597
18.33962,4967
18.34535,4427
18.35107,4081
18.35678,3978
18.36252,3941
18.36823,3816
18.37395,4074
18.37968,3519
18.38540,4606
18.39112,3349
18.39685,3528
18.40257,3617
18.40828,3493
18.41400,4020
18.41973,3462
18.42545,3700
18.43117,4381
18.43690,4257
18.44262,8509
18.44833,11639
18.45407,13155
18.45978,13723
18.46550,11008
18.47123,7180
18.47695,4929
18.48267,4535
18.48840,3105
18.49412,4481
18.49983,4457
18.50557,3740
18.51128,3117
18.51700,4330
18.52273,3875
18.52845,3745
18.53417,3910
18.53990,3260
18.54562,5060
18.55133,4908
18.55707,5356
18.56278,6493
18.56850,7827
18.57423,7111
18.57995,6337
18.58567,5885
18.59138,6313
18.59712,4404
18.60283,5364
18.60855,4086
18.61428,4461
18.62000,4764
18.62572,3826
18.63145,3883
18.63717,3294
18.64288,3913
18.64862,4974
18.65433,4597
18.66005,4133
18.66578,4485
18.67150,4146
18.67722,3924
18.68295,4316
18.68867,4338
18.69438,4331
18.70012,2778
18.70583,4324
18.71155,3918
18.71728,4714
18.72300,3834
18.72872,4180
18.73445,4365
18.74017,3267
18.74588,4082
18.75162,4430
18.75733,3901
18.76305,5038
18.76878,5495
18.77450,6779
18.78022,9362
18.78593,21638
18.79167,50529
18.79738,94053
18.80310,143846
18.80883,157386
18.81455,143494
18.82027,105209
18.82600,70470
18.83172,45259
18.83743,32836
18.84317,27853
18.84888,22471
18.85460,20325
18.86033,20031
18.86605,22284
18.87177,29958
18.87750,51161
18.88322,92904
18.88893,148530
18.89467,185681
18.90038,196582
18.90610,154889
18.91183,108806
18.91755,59402
18.92327,30059
18.92900,20514
18.93472,16054
18.94043,15791
18.94615,15824
18.95188,16934
18.95760,19610
18.96332,17812
18.96905,17813
18.97477,16271
18.98048,13964
18.98622,12240
18.99193,12133
18.99765,12138
19.00338,13980
19.00910,15589
19.01482,19612
19.02055,22058
19.02627,21796
19.03198,21110
19.03772,16080
19.04343,13822
19.04915,11025
19.05488,9843
19.06060,10929
19.06632,9861
19.07205,8429
19.07777,11438
19.08348,10890
19.08922,9881
19.09493,9600
19.10065,9953
19.10638,7964
19.11210,9610
19.11782,8003
19.12355,8519
19.12927,9684
19.13498,8745
19.14070,8740
19.14643,9175
19.15215,8953
19.15787,8249
19.16360,7715
19.16932,8529
19.17503,8500
19.18077,8350
19.18648,7446
19.19220,8683
19.19793,7147
19.20365,7179
19.20937,6906
19.21510,8010
19.22082,6189
19.22653,6953
19.23227,6363
19.23798,7126
19.24370,6833
19.24943,5992
19.25515,6533
19.26087,5977
19.26660,7521
19.27232,6996
19.27803,8339
19.28377,6292
19.28948,6898
19.29520,7321
19.30093,6689
19.30665,9328
19.31237,7410
19.31808,7031
19.32382,7380
19.32953,8361
19.33525,6724
19.34098,8795
19.34670,7055
19.35242,8165
19.35815,6579
19.36387,7334
19.36958,5930
19.37532,7486
19.38103,6810
19.38675,5968
19.39248,7993
19.39820,8840
19.40392,8734
19.40965,8759
19.41537,10081
19.42108,13414
19.42682,15536
19.43253,20353
19.43825,21715
19.44398,19766
19.44970,16537
19.45542,13824
19.46115,11901
19.46687,12136
19.47258,11386
19.47832,8676
19.48403,8424
19.48975,8568
19.49547,7759
19.50120,7489
19.50692,7952
19.51263,7345
19.51837,8771
19.52408,7765
19.52980,7020
19.53553,6829
19.54125,7714
19.54697,6789
19.55270,7211
19.55842,7462
19.56413,6835
19.56987,7958
19.57558,6908
19.58130,6605
19.58703,6631
19.59275,7523
19.59847,6854
19.60420,6173
19.60992,6336
19.61563,6727
19.62137,6133
19.62708,5615
19.63280,7235
19.63853,7644
19.64425,7998
19.64997,7893
19.65570,6729
19.66142,6954
19.66713,6862
19.67285,6407
19.67858,7486
19.68430,6471
19.69002,7484
19.69575,6191
19.70147,7877
19.70718,6996
19.71292,6478
19.71863,7171
19.72435,6569
19.73008,7209
19.73580,6871
19.74152,7615
19.74725,5378
19.75297,6707
19.75868,7855
19.76442,7757
19.77013,6631
19.77585,5098
19.78158,7060
19.78730,6613
19.79302,7555
19.79875,7981
19.80447,5811
19.81018,6777
19.81592,7561
19.82163,8484
19.82735,7776
19.83308,6987
19.83880,6514
19.84452,7983
19.85025,6379
19.85597,7606
19.86168,6095
19.86740,7561
19.87313,7135
19.87885,7011
19.88457,6996
19.89030,7082
19.89602,7548
19.90173,7476
19.90747,5922
19.91318,7201
19.91890,6159
19.92463,6483
19.93035,6134
19.93607,6519
19.94180,7186
19.94752,6200
19.95323,7589
19.95897,6756
19.96468,7924
19.97040,6696
19.97613,5965
19.98185,6577
19.98757,6072
19.99330,7358
19.99902,7187
20.00473,5950
20.01047,5930
20.01618,7502
20.02190,7070
20.02763,6124
20.03335,6109
20.03907,5800
20.04478,7445
20.05052,6179
20.05623,6154
20.06195,7190
20.06768,6632
20.07340,6423
20.07912,6077
20.08485,7227
20.09057,7914
20.09628,6984
20.10202,6023
20.10773,7221
20.11345,7463
20.11918,6499
20.12490,7764
20.13062,6535
20.13635,6893
20.14207,6978
20.14778,7461
20.15352,8338
20.15923,14506
20.16495,33220
20.17068,74096
20.17640,135364
20.18212,213804
20.18785,290693
20.19357,300422
20.19928,251043
20.20502,162204
20.21073,82796
20.21645,40119
20.22217,23636
20.22790,15947
20.23362,12699
20.23933,11211
20.24507,11626
20.25078,11079
20.25650,12088
20.26223,9963
20.26795,10709
20.27367,10229
20.27940,9607
20.28512,9328
20.29083,10308
20.29657,9453
20.30228,9473
20.30800,8996
20.31373,10527
20.31945,10889
20.32517,10311
20.33090,11073
20.33662,11197
20.34233,9162
20.34807,10142
20.35378,8785
20.35950,8003
20.36523,8926
20.37095,10176
20.37667,9284
20.38240,8511
20.38812,9263
20.39383,8602
20.39955,9082
20.40528,9330
20.41100,9179
20.41672,8810
20.42245,9090
20.42817,8190
20.43388,11042
20.43962,8932
20.44533,8396
20.45105,9099
20.45678,8580
20.46250,8486
20.46822,7535
20.47395,8241
20.47967,7348
20.48538,7908
20.49112,8225
20.49683,8497
20.50255,8695
20.50828,7018
20.51400,9194
20.51972,9662
20.52545,8466
20.53117,9519
20.53688,8572
20.54262,9640
20.54833,8892
20.55405,8578
20.55978,8279
20.56550,9092
20.57122,7046
20.57693,9950
20.58267,9483
20.58838,7380
20.59410,8577
20.59983,9464
20.60555,8828
20.61127,9982
20.61700,8844
20.62272,10107
20.62843,8731
20.63417,9338
20.63988,8852
20.64560,9146
20.65133,8056
20.65705,8879
20.66277,9495
20.66850,8161
20.67422,8725
20.67993,9222
20.68567,9217
20.69138,9819
20.69710,8389
20.70283,9632
20.70855,10988
20.71427,11986
20.72000,17488
20.72572,23342
20.73143,30810
20.73717,35652
20.74288,32975
20.74860,24847
20.75432,21181
20.76005,16306
20.76577,12801
20.77148,10647
20.77722,9587
20.78293,10539
20.78865,11037
20.79438,9960
20.80010,9683
20.80582,10697
20.81155,10206
20.81727,9597
20.82298,9392
20.82872,10837
20.83443,10536
20.84015,9401
20.84588,10439
20.85160,10162
20.85732,10958
20.86305,8420
20.86877,9100
20.87448,11335
20.88022,10492
20.88593,14594
20.89165,18250
20.89738,16424
20.90310,15796
20.90882,15019
20.91455,14094
20.92027,11769
20.92598,10195
20.93172,10223
20.93743,10374
20.94315,10557
20.94887,9274
20.95460,9607
20.96032,10411
20.96603,9861
20.97177,9552
20.97748,9742
20.98320,10629
20.98893,9795
20.99465,10857
21.00037,9904
21.00610,10388
21.01182,8947
21.01753,9533
21.02327,9302
21.02898,11613
21.03470,10583
21.04043,10758
21.04615,10437
21.05187,10075
21.05760,9906
21.06332,10404
21.06903,10579
21.07477,11289
21.08048,10219
21.08620,10952
21.09193,10566
21.09765,10297
21.10337,9206
21.10910,9093
21.11482,11978
21.12053,12346
21.12625,10057
21.13198,11505
21.13770,10809
21.14342,10467
21.14915,10746
21.15487,10588
21.16058,12676
21.16632,12059
21.17203,12182
21.17775,12318
21.18348,11263
21.18920,11664
21.19492,12374
21.20065,11150
21.20637,10587
21.21208,12123
21.21782,10386
21.22353,11130
21.22925,10589
21.23498,10400
21.24070,9842
21.24642,11128
21.25215,9529
21.25787,9887
21.26358,11477
21.26932,11955
21.27503,10553
21.28075,11027
21.28648,10486
21.29220,11283
21.29792,10684
21.30363,10986
21.30937,10705
21.31508,10696
21.32080,10806
21.32653,11309
21.33225,10865
21.33797,10251
21.34370,11641
21.34942,11679
21.35513,11649
21.36087,16086
21.36658,24578
21.37230,47578
21.37803,98869
21.38375,191610
21.38947,317112
21.39520,413391
21.40092,441110
21.40663,388399
21.41237,290859
21.41808,186587
21.42380,111672
21.42953,59811
21.43525,39498
21.44097,26895
21.44670,23207
21.45242,22378
21.45813,19665
21.46387,18332
21.46958,16658
21.47530,17355
21.48102,16468
21.48675,17903
21.49247,16521
21.49818,15601
21.50392,14998
21.50963,15003
21.51535,15596
21.52108,13275
21.52680,15438
21.53252,14051
21.53825,14529
21.54397,15799
21.54968,14901
21.55542,13184
21.56113,13811
21.56685,13171
21.57258,14209
21.57830,14848
21.58402,14731
21.58975,12327
21.59547,13583
21.60118,14066
21.60692,14680
21.61263,12963
21.61835,13654
21.62408,12463
21.62980,13997
21.63552,13864
21.64125,14770
21.64697,12678
21.65268,12084
21.65840,13873
21.66413,13515
21.66985,12551
21.67557,13584
21.68130,13063
21.68702,13343
21.69273,14163
21.69847,12198
21.70418,13285
21.70990,14141
21.71563,13497
21.72135,14522
21.72707,13459
21.73280,12625
21.73852,14230
21.74423,12802
21.74997,12884
21.75568,12361
21.76140,13888
21.76713,13397
21.77285,14273
21.77857,13805
21.78430,14610
21.79002,12139
21.79573,13340
21.80147,14502
21.80718,13117
21.81290,13465
21.81863,14655
21.82435,13470
21.83007,12566
21.83580,13635
21.84152,13329
21.84723,14665
21.85295,13681
21.85868,14580
21.86440,14020
21.87012,15018
21.87585,12007
21.88157,12780
21.88728,11875
21.89302,12047
21.89873,12581
21.90445,13490
21.91018,13638
21.91590,11941
21.92162,13446
21.92735,13593
21.93307,11724
21.93878,14666
21.94452,13052
21.95023,12906
21.95595,14188
21.96168,12356
21.96740,13209
21.97312,12478
21.97885,13022
21.98457,13571
21.99028,14918
21.99602,16030
22.00173,15791
22.00745,16471
22.01317,15745
22.01890,15380
22.02462,15440
22.03033,17918
22.03607,21268
22.04178,28255
22.04750,32209
22.05323,38534
22.05895,40825
22.06467,41435
22.07040,33941
22.07612,28558
22.08183,21472
22.08757,17347
22.09328,15530
22.09900,16412
22.10473,13330
22.11045,13544
22.11617,12960
22.12190,14006
22.12762,14318
22.13333,14823
22.13907,14652
22.14478,13013
22.15050,13888
22.15623,12903
22.16195,13484
22.16767,15348
22.17340,14648
22.17912,14813
22.18483,15268
22.19057,14520
22.19628,14096
22.20200,13299
22.20772,13214
22.21345,12890
22.21917,13974
22.22488,11846
22.23062,13314
22.23633,13290
22.24205,12876
22.24778,12862
22.25350,11614
22.25922,13341
22.26495,12744
22.27067,13551
22.27638,13635
22.28212,12414
22.28783,12422
22.29355,12933
22.29928,12789
22.30500,12391
22.31072,12253
22.31645,13953
22.32217,13335
22.32788,14401
22.33362,13847
22.33933,14066
22.34505,14540
22.35078,14096
22.35650,13617
22.36222,13770
22.36795,14614
22.37367,14208
22.37938,13699
22.38510,12930
22.39083,13926
22.39655,13059
22.40227,12440
22.40800,12794
22.41372,13176
22.41943,11664
22.42517,13763
22.43088,13107
22.43660,13143
22.44233,14046
22.44805,14141
22.45377,14182
22.45950,13184
22.46522,15729
22.47093,16894
22.47667,15504
22.48238,16760
22.48810,15884
22.49383,14856
22.49955,12884
22.50527,12599
22.51100,12791
22.51672,13021
22.52243,12479
22.52817,12677
22.53388,13574
22.53960,12864
22.54533,13179
22.55105,11812
22.55677,12984
22.56248,12500
22.56822,11882
22.57393,13873
22.57965,11639
22.58538,11948
22.59110,13406
22.59682,11921
22.60255,12282
22.60827,13486
22.61398,14067
22.61972,18073
22.62543,26204
22.63115,45155
22.63688,72409
22.64260,107110
22.64832,144122
22.65405,164288
22.65977,176691
22.66548,157700
22.67122,130572
22.67693,97318
22.68265,75839
22.68838,56136
22.69410,47460
22.69982,38350
22.70555,35262
22.71127,32838
22.71698,30372
22.72272,28402
22.72843,28542
22.73415,25807
22.73987,26735
22.74560,24867
22.75132,22505
22.75703,24069
22.76277,31149
22.76848,40232
22.77420,64374
22.77993,108882
22.78565,174163
22.79137,258879
22.79710,345125
22.80282,430479
22.80853,498262
22.81427,518058
22.81998,477942
22.82570,388517
22.83143,283695
22.83715,206270
22.84287,139431
22.84860,90997
22.85432,69048
22.86003,48341
22.86577,39367
22.87148,34945
22.87720,32178
22.88293,30816
22.88865,26927
22.89437,26567
22.90010,25033
22.90582,24227
22.91153,24652
22.91727,23608
22.92298,22231
22.92870,23213
22.93442,24414
22.94015,21746
22.94587,20901
22.95158,22814
22.95732,21262
22.96303,18958
22.96875,20434
22.97448,20156
22.98020,19588
22.98592,20888
22.99165,19141
22.99737,18322
23.00308,18611
23.00882,17691
23.01453,19426
23.02025,19078
23.02598,18820
23.03170,18133
23.03742,18640
23.04315,17447
23.04887,18185
23.05458,18391
23.06032,18582
23.06603,18174
23.07175,19903
23.07748,17567
23.08320,17853
23.08892,17349
23.09465,16864
23.10037,17932
23.10608,16439
23.11180,15866
23.11753,16340
23.12325,17375
23.12897,17995
23.13470,18512
23.14042,17876
23.14613,17629
23.15187,15757
23.15758,17776
23.16330,15649
23.16903,15098
23.17475,17499
23.18047,17512
23.18620,15720
23.19192,15661
23.19763,18285
23.20337,16065
23.20908,17003
23.21480,16160
23.22053,15587
23.22625,15351
23.23197,15956
23.23770,14787
23.24342,15725
23.24913,17045
23.25487,15800
23.26058,15825
23.26630,16336
23.27203,15057
23.27775,16017
23.28347,14232
23.28918,16418
23.29492,16408
23.30063,16085
23.30635,14313
23.31208,14945
23.31780,15821
23.32352,15058
23.32925,14546
23.33497,14474
23.34068,14442
23.34642,14642
23.35213,15181
23.35785,15409
23.36358,15270
23.36930,14120
23.37502,15492
23.38075,15545
23.38647,16473
23.39218,15299
23.39792,15021
23.40363,15246
23.40935,14133
23.41508,16504
23.42080,17477
23.42652,15006
23.43225,14876
23.43797,14468
23.44368,16111
23.44942,15219
23.45513,14560
23.46085,16016
23.46657,16076
23.47230,15731
23.47802,14182
23.48373,14596
23.48947,14726
23.49518,14266
23.50090,14837
23.50663,14874
23.51235,15060
23.51807,13319
23.52380,14408
23.52952,15070
23.53523,13592
23.54097,15003
23.54668,14848
23.55240,15235
23.55813,14243
23.56385,14756
23.56957,13728
23.57530,13748
23.58102,13306
23.58673,13927
23.59247,12722
23.59818,14677
23.60390,13235
23.60963,14887
23.61535,12510
23.62107,14161
23.62680,15030
23.63252,14580
23.63823,12218
23.64395,14218
23.64968,13579
23.65540,14203
23.66112,14330
23.66685,13556
23.67257,12872
23.67828,12803
23.68402,15409
23.68973,13991
23.69545,13082
23.70118,13740
23.70690,15309
23.71262,14812
23.71835,18016
23.72407,20051
23.72978,23114
23.73552,26667
23.74123,28477
23.74695,31594
23.75268,30837
23.75840,31676
23.76412,29500
23.76985,29252
23.77557,25157
23.78128,22462
23.78702,18987
23.79273,18691
23.79845,15746
23.80418,15492
23.80990,14911
23.81562,13317
23.82133,15303
23.82707,15127
23.83278,13409
23.83850,13229
23.84423,13805
23.84995,13502
23.85567,15329
23.86140,13380
23.86712,14609
23.87283,12983
23.87857,14030
23.88428,13231
23.89000,14029
23.89573,12578
23.90145,13331
23.90717,13265
23.91290,13813
23.91862,13332
23.92433,13837
23.93007,15931
23.93578,14476
23.94150,13151
23.94723,15347
23.95295,13142
23.95867,15411
23.96440,13654
23.97012,14724
23.97583,11313
23.98157,13120
23.98728,13630
23.99300,13199
23.99873,14448
24.00445,12008
24.01017,13662
24.01588,13596
24.02162,14468
24.02733,13855
24.03305,13975
24.03878,14474
24.04450,14453
24.05022,13877
24.05595,13966
24.06167,14950
24.06738,14798
24.07312,14223
24.07883,12773
24.08455,12276
24.09028,13613
24.09600,13010
24.10172,13065
24.10745,13649
24.11317,13435
24.11888,13768
24.12462,13660
24.13033,13579
24.13605,14407
24.14178,15005
24.14750,14707
24.15322,13081
24.15895,14428
24.16467,15112
24.17038,15205
24.17612,14479
24.18183,15758
24.18755,15205
24.19327,14499
24.19900,14815
24.20472,15000
24.21043,15222
24.21617,14099
24.22188,15434
24.22760,14609
24.23333,16785
24.23905,13663
24.24477,14752
24.25050,16601
24.25622,16315
24.26193,16317
24.26767,15261
24.27338,15742
24.27910,14546
24.28483,15406
24.29055,14521
24.29627,14873
24.30200,15881
24.30772,14271
24.31343,14492
24.31917,14666
24.32488,15850
24.33060,15365
24.33633,13791
24.34205,14793
24.34777,14479
24.35350,13970
24.35922,13707
24.36493,14175
24.37065,12632
24.37638,12582
24.38210,13220
24.38782,13388
24.39355,11784
24.39927,12133
24.40498,12960
24.41072,12917
24.41643,12736
24.42215,12790
24.42788,12731
24.43360,12983
24.43932,12183
24.44505,11396
24.45077,13149
24.45648,13398
24.46222,13089
24.46793,12289
24.47365,12737
24.47938,11361
24.48510,12156
24.49082,11541
24.49655,12582
24.50227,12571
24.50798,11544
24.51372,11676
24.51943,12609
24.52515,12947
24.53088,12179
24.53660,13176
24.54232,11719
24.54803,13325
24.55377,11944
24.55948,12263
24.56520,11209
24.57093,13214
24.57665,15730
24.58237,17930
24.58810,21555
24.59382,27338
24.59953,42273
24.60527,61718
24.61098,91173
24.61670,134091
24.62243,179236
24.62815,233818
24.63387,301546
24.63960,350516
24.64532,392165
24.65103,412866
24.65677,390101
24.66248,367472
24.66820,331788
24.67393,276329
24.67965,222869
24.68537,174439
24.69110,125844
24.69682,95060
24.70253,67423
24.70827,51208
24.71398,40333
24.71970,31802
24.72543,27314
24.73115,24337
24.73687,22006
24.74258,22135
24.74832,20261
24.75403,19785
24.75975,20516
24.76548,19958
24.77120,20124
24.77692,17710
24.78265,18519
24.78837,18200
24.79408,17621
24.79982,18516
24.80553,17166
24.81125,15894
24.81698,16056
24.82270,16336
24.82842,16826
24.83415,15845
24.83987,15654
24.84558,15784
24.85132,16147
24.85703,14463
24.86275,16907
24.86848,14847
24.87420,15412
24.87992,15007
24.88565,15986
24.89137,15348
24.89708,15033
24.90282,16388
24.90853,15421
24.91425,13885
24.91997,14447
24.92570,15979
24.93142,15728
24.93713,15788
24.94287,15176
24.94858,14471
24.95430,16476
24.96003,14405
24.96575,13815
24.97147,15357
24.97720,14502
24.98292,15224
24.98863,13933
24.99437,15317
25.00008,14362
25.00580,13561
25.01153,13866
25.01725,12728
25.02297,15764
25.02870,13131
25.03442,12944
25.04013,14331
25.04587,13226
25.05158,14328
25.05730,13130
25.06303,13091
25.06875,14241
25.07447,14640
25.08020,12385
25.08592,14651
25.09163,14809
25.09735,13782
25.10308,13088
25.10880,12985
25.11452,12900
25.12025,13148
25.12597,13811
25.13168,13155
25.13742,13794
25.14313,13970
25.14885,12520
25.15458,13537
25.16030,15372
25.16602,12761
25.17175,12124
25.17747,13565
25.18318,13374
25.18892,13069
25.19463,12691
25.20035,14592
25.20608,13768
25.21180,14354
25.21752,13276
25.22325,14486
25.22897,12101
25.23468,14173
25.24042,13086
25.24613,14620
25.25185,13617
25.25758,14058
25.26330,14606
25.26902,13241
25.27473,13987
25.28047,12443
25.28618,14783
25.29190,11303
25.29763,13550
25.30335,13278
25.30907,12457
25.31480,13280
25.32052,13839
25.32623,13950
25.33197,11986
25.33768,13776
25.34340,12862
25.34913,12595
25.35485,13051
25.36057,13987
25.36630,11983
25.37202,14884
25.37773,12298
25.38347,13432
25.38918,14220
25.39490,13043
25.40063,12729
25.40635,12718
25.41207,12992
25.41780,12310
25.42352,12630
25.42923,13314
25.43497,13759
25.44068,13714
25.44640,12975
25.45212,12233
25.45785,12704
25.46357,13718
25.46928,13208
25.47502,13699
25.48073,11921
25.48645,13474
25.49218,15512
25.49790,13747
25.50362,13354
25.50935,12307
25.51507,11672
25.52078,12982
25.52652,12428
25.53223,12139
25.53795,12330
25.54368,12049
25.54940,14096
25.55512,12971
25.56085,13213
25.56657,12470
25.57228,13342
25.57802,12931
25.58373,13429
25.58945,13065
25.59518,12846
25.60090,12948
25.60662,12577
25.61235,12261
25.61807,14026
25.62378,12837
25.62950,11533
25.63523,12383
25.64095,11280
25.64667,12384
25.65240,11673
25.65812,12515
25.66383,12753
25.66957,13421
25.67528,12151
25.68100,12742
25.68673,12201
25.69245,12027
25.69817,13006
25.70390,11939
25.70962,13177
25.71533,11113
25.72107,11411
25.72678,11807
25.73250,11983
25.73823,12742
25.74395,12440
25.74967,14212
25.75540,11105
25.76112,12118
25.76683,13108
25.77257,12925
25.77828,11431
25.78400,12339
25.78973,11908
25.79545,13088
25.80117,11883
25.80688,11770
25.81262,12068
25.81833,11509
25.82405,12726
25.82978,11566
25.83550,12417
25.84122,12496
25.84695,10824
25.85267,11350
25.85838,12864
25.86412,11124
25.86983,11993
25.87555,11708
25.88128,11016
25.88700,11640
25.89272,11187
25.89845,12649
25.90417,11797
25.90988,12132
25.91562,12095
25.92133,11452
25.92705,13370
25.93278,13101
25.93850,12102
25.94422,11958
25.94995,11114
25.95567,13196
25.96138,11380
25.96712,12503
25.97283,11884
25.97855,11871
25.98428,12758
25.99000,12877
25.99572,12033
26.00143,12127
26.00717,11324
26.01288,12591
26.01860,11761
26.02433,12953
26.03005,12755
26.03577,13096
26.04150,14798
26.04722,15081
26.05293,14058
26.05867,16233
26.06438,17728
26.07010,18933
26.07583,19337
26.08155,19505
26.08727,19731
26.09300,23261
26.09872,20703
26.10443,20837
26.11017,20404
26.11588,21670
26.12160,18424
26.12733,18228
26.13305,17141
26.13877,15309
26.14450,16416
26.15022,15246
26.15593,13314
26.16167,13903
26.16738,12738
26.17310,13599
26.17882,13920
26.18455,13211
26.19027,16674
26.19598,17061
26.20172,21059
26.20743,24184
26.21315,34200
26.21888,42316
26.22460,53407
26.23032,71809
26.23605,85532
26.24177,96674
26.24748,109158
26.25322,119027
26.25893,123412
26.26465,118311
26.27038,115772
26.27610,107074
26.28182,97835
26.28755,86259
26.29327,69796
26.29898,60610
26.30472,50388
26.31043,41459
26.31615,37387
26.32188,33879
26.32760,31100
26.33332,27024
26.33905,27473
26.34477,25910
26.35048,23678
26.35620,22148
26.36193,21669
26.36765,23036
26.37337,19973
26.37910,20222
26.38482,20456
26.39053,21092
26.39627,19760
26.40198,20045
26.40770,19054
26.41343,18781
26.41915,19438
26.42487,19944
26.43060,17966
26.43632,19001
26.44203,19099
26.44777,19635
26.45348,18598
26.45920,18080
26.46493,18920
26.47065,18075
26.47637,18368
26.48210,17264
26.48782,17155
26.49353,17753
26.49927,16742
26.50498,17051
26.51070,17751
26.51643,16132
26.52215,14829
26.52787,15890
26.53358,14980
26.53932,15514
26.54503,17035
26.55075,17068
26.55648,15443
26.56220,16800
26.56792,16954
26.57365,15908
26.57937,15788
26.58508,16058
26.59082,15473
26.59653,16118
26.60225,15476
26.60798,14253
26.61370,15133
26.61942,15543
26.62515,16356
26.63087,15252
26.63658,15060
26.64232,14770
26.64803,15643
26.65375,16090
26.65948,16117
26.66520,15900
26.67092,15300
26.67665,15190
26.68237,15359
26.68808,14261
26.69382,14117
26.69953,15728
26.70525,13583
26.71098,14205
26.71670,14982
26.72242,15798
26.72813,14429
26.73387,14633
26.73958,15388
26.74530,12904
26.75103,15341
26.75675,14294
26.76247,14998
26.76820,15747
26.77392,15510
26.77963,15765
26.78537,14455
26.79108,16381
26.79680,14823
26.80253,13412
26.80825,16445
26.81397,14916
26.81970,14833
26.82542,13205
26.83113,14134
26.83687,14380
26.84258,14081
26.84830,13099
26.85403,14019
26.85975,12864
26.86547,14446
26.87120,16173
26.87692,13980
26.88263,12953
26.88835,15220
26.89408,13513
26.89980,13434
26.90552,12130
26.91125,13246
26.91697,13820
26.92268,15020
26.92842,14208
26.93413,14163
26.93985,12587
26.94558,11980
26.95130,12628
26.95702,14494
26.96275,12554
26.96847,14261
26.97418,13768
26.97992,13601
26.98563,12964
26.99135,14655
26.99708,14360
27.00280,13081
27.00852,14922
27.01425,12642
27.01997,12592
27.02568,13504
27.03142,14048
27.03713,14813
27.04285,17187
27.04858,15590
27.05430,18308
27.06002,21534
27.06575,27174
27.07147,33771
27.07718,44811
27.08290,58000
27.08863,77607
27.09435,97349
27.10007,118525
27.10580,147238
27.11152,173527
27.11723,212487
27.12297,237727
27.12868,257506
27.13440,260463
27.14013,276119
27.14585,274085
27.15157,265889
27.15730,267955
27.16302,248853
27.16873,227387
27.17447,196710
27.18018,168053
27.18590,141989
27.19163,117877
27.19735,95538
27.20307,75610
27.20880,63427
27.21452,50226
27.22023,42532
27.22597,33374
27.23168,31157
27.23740,27040
27.24313,22447
27.24885,21880
27.25457,20227
27.26028,21361
27.26602,21691
27.27173,18880
27.27745,18693
27.28318,18104
27.28890,17501
27.29462,17392
27.30035,16588
27.30607,18221
27.31178,17119
27.31752,16419
27.32323,16795
27.32895,17032
27.33468,16369
27.34040,15337
27.34612,16678
27.35185,16106
27.35757,17500
27.36328,16555
27.36902,17256
27.37473,15228
27.38045,17006
27.38618,15097
27.39190,14951
27.39762,16663
27.40335,15243
27.40907,16437
27.41478,13373
27.42052,16007
27.42623,13384
27.43195,17140
27.43767,15367
27.44340,14041
27.44912,16505
27.45483,14659
27.46057,15439
27.46628,14362
27.47200,15504
27.47773,15324
27.48345,14488
27.48917,15874
27.49490,14588
27.50062,14577
27.50633,15397
27.51207,14777
27.51778,14923
27.52350,15055
27.52923,15518
27.53495,13840
27.54067,14486
27.54640,13596
27.55212,11984
27.55783,14005
27.56357,13543
27.56928,13070
27.57500,15271
27.58073,15769
27.58645,13473
27.59217,14083
27.59790,15200
27.60362,15156
27.60933,12454
27.61505,14212
27.62078,13960
27.62650,14711
27.63222,15277
27.63795,14060
27.64367,13938
27.64938,13423
27.65512,15183
27.66083,14522
27.66655,14077
27.67228,13190
27.67800,12936
27.68372,12804
27.68945,13675
27.69517,14473
27.70088,13355
27.70662,14165
27.71233,13764
27.71805,13878
27.72378,12902
27.72950,13511
27.73522,14334
27.74095,14456
27.74667,13941
27.75238,13672
27.75812,13686
27.76383,14776
27.76955,15161
27.77528,14730
27.78100,12996
27.78672,13102
27.79245,12161
27.79817,12935
27.80388,14433
27.80960,13234
27.81533,11664
27.82105,12660
27.82677,13740
27.83250,13209
27.83822,14179
27.84393,12980
27.84967,13407
27.85538,15029
27.86110,13734
27.86683,14163
27.87255,13427
27.87827,12772
27.88400,12835
27.88972,14278
27.89543,12620
27.90117,12691
27.90688,12797
27.91260,13765
27.91833,14009
27.92405,14533
27.92977,12122
27.93550,13585
27.94122,13500
27.94693,12989
27.95267,12859
27.95838,14531
27.96410,13560
27.96983,11993
27.97555,13167
27.98127,13086
27.98698,13655
27.99272,13781
27.99843,13338
28.00415,12474
28.00988,12810
28.01560,13513
28.02132,13332
28.02705,13811
28.03277,13239
28.03848,11328
28.04422,12839
28.04993,13450
28.05565,13204
28.06138,13206
28.06710,13192
28.07282,13638
28.07855,12721
28.08427,13286
28.08998,10741
28.09572,13282
28.10143,13713
28.10715,13181
28.11288,12352
28.11860,13986
28.12432,12387
28.13005,12458
28.13577,13530
28.14148,11548
28.14722,12786
28.15293,12733
28.15865,11944
28.16437,13403
28.17010,12949
28.17582,12808
28.18153,12868
28.18727,11571
28.19298,14195
28.19870,13399
28.20443,11746
28.21015,12739
28.21587,13393
28.22160,13367
28.22732,12326
28.23303,12864
28.23877,13394
28.24448,12486
28.25020,12173
28.25593,13314
28.26165,14081
28.26737,12621
28.27310,11849
28.27882,13712
28.28453,13451
28.29027,13777
28.29598,13576
28.30170,14244
28.30743,13274
28.31315,13244
28.31887,12442
28.32460,13151
28.33032,12695
28.33603,12301
28.34175,12301
28.34748,11539
28.35320,14324
28.35892,12074
28.36465,14227
28.37037,12137
28.37608,12134
28.38182,12026
28.38753,12681
28.39325,12293
28.39898,12039
28.40470,12201
28.41042,12263
28.41615,12444
28.42187,13091
28.42758,12121
28.43332,12145
28.43903,10905
28.44475,10568
28.45048,11995
28.45620,13307
28.46192,11424
28.46765,11687
28.47337,11749
28.47908,10398
28.48482,11935
28.49053,12190
28.49625,11885
28.50198,12317
28.50770,11420
28.51342,12044
28.51913,12707
28.52487,11500
28.53058,13146
28.53630,11000
28.54203,12055
28.54775,11026
28.55347,10671
28.55920,11609
28.56492,12619
28.57063,12272
28.57637,11154
28.58208,12280
28.58780,11394
28.59353,12001
28.59925,12876
28.60497,11740
28.61070,11629
28.61642,12022
28.62213,12099
28.62787,11132
28.63358,12492
28.63930,11370
28.64503,11190
28.65075,13079
28.65647,11052
28.66220,10656
28.66792,12078
28.67363,13103
28.67937,12724
28.68508,12103
28.69080,11501
28.69653,12122
28.70225,11419
28.70797,11979
28.71368,10853
28.71942,11506
28.72513,11973
28.73085,12881
28.73658,10785
28.74230,12842
28.74802,12387
28.75375,11819
28.75947,11188
28.76518,10118
28.77092,11380
28.77663,11417
28.78235,11437
28.78808,11662
28.79380,11691
28.79952,12268
28.80525,12432
28.81097,12424
28.81668,12373
28.82242,12309
28.82813,12659
28.83385,10966
28.83958,12008
28.84530,13430
28.85102,10599
28.85675,12483
28.86247,11345
28.86818,11254
28.87392,11495
28.87963,11132
28.88535,12272
28.89107,12314
28.89680,11948
28.90252,12170
28.90823,11915
28.91397,11601
28.91968,12179
28.92540,11369
28.93113,11498
28.93685,11857
28.94257,12125
28.94830,11693
28.95402,12023
28.95973,12391
28.96547,12893
28.97118,12258
28.97690,11179
28.98263,11186
28.98835,11541
28.99407,11038
28.99980,11650
29.00552,11581
29.01123,10734
29.01697,12858
29.02268,11673
29.02840,11469
29.03413,12879
29.03985,12662
29.04557,11138
29.05130,10600
29.05702,10920
29.06273,11613
29.06845,10868
29.07418,11696
29.07990,11272
29.08562,11601
29.09135,11986
29.09707,11539
29.10278,10823
29.10852,12012
29.11423,12940
29.11995,11740
29.12568,11338
29.13140,11743
29.13712,12307
29.14285,10958
29.14857,12531
29.15428,12373
29.16002,11940
29.16573,11802
29.17145,10869
29.17718,11917
29.18290,11251
29.18862,11331
29.19435,11149
29.20007,11891
29.20578,11876
29.21152,9907
29.21723,11624
29.22295,11788
29.22868,11378
29.23440,12738
29.24012,10984
29.24583,11178
29.25157,11384
29.25728,10426
29.26300,11022
29.26873,11782
29.27445,12462
29.28017,12564
29.28590,10684
29.29162,11141
29.29733,11202
29.30307,11494
29.30878,13288
29.31450,11450
29.32023,11019
29.32595,11409
29.33167,10431
29.33740,12035
29.34312,11228
29.34883,12715
29.35457,12867
29.36028,12947
29.36600,11729
29.37173,12432
29.37745,11854
29.38317,13138
29.38890,12482
29.39462,13226
29.40033,12933
29.40607,11585
29.41178,13921
29.41750,15307
29.42322,15225
29.42895,14022
29.43467,15074
29.44038,13758
29.44612,14570
29.45183,15124
29.45755,12962
29.46328,15113
29.46900,13462
29.47472,15556
29.48045,14967
29.48617,14483
29.49188,13289
29.49762,13928
29.50333,11820
29.50905,13185
29.51478,11931
29.52050,14076
29.52622,11515
29.53195,12349
29.53767,12075
29.54338,12086
29.54912,11618
29.55483,11672
29.56055,11981
29.56628,9902
29.57200,11947
29.57772,11251
29.58345,11669
29.58917,11964
29.59488,11145
29.60060,11603
29.60633,11613
29.61205,12008
29.61777,11782
29.62350,11617
29.62922,12185
29.63493,11414
29.64067,11156
29.64638,11437
29.65210,10320
29.65783,11269
29.66355,11741
29.66927,10015
29.67500,9742
29.68072,11917
29.68643,11318
29.69217,11619
29.69788,12244
29.70360,11393
29.70933,10763
29.71505,11765
29.72077,11229
29.72650,10951
29.73222,11543
29.73793,9754
29.74367,10680
29.74938,10921
29.75510,11970
29.76083,10478
29.76655,11592
29.77227,12619
29.77800,9819
29.78372,10231
29.78943,11404
29.79515,9725
29.80088,11318
29.80660,10236
29.81232,10776
29.81805,10599
29.82377,12133
29.82948,11570
29.83522,12199
29.84093,11589
29.84665,11369
29.85238,11444
29.85810,11434
29.86382,11101
29.86955,12971
29.87527,12132
29.88098,11011
29.88672,10352
29.89243,10112
29.89815,11030
29.90388,11517
29.90960,11583
29.91532,10714
29.92105,12200
29.92677,10119
29.93248,9391
29.93822,10003
29.94393,12265
29.94965,11849
29.95538,11118
29.96110,11601
29.96682,11271
29.97253,10770
29.97827,10028
29.98398,12158
29.98970,11276
