D:\MassHunter\GCMS\1\data\2025\Quentin\QD_250515_MONITORING_Cl_24h_3uL_inj.D Fri May 16 13:48:35 2025
Start of data points
6.04293,30876
6.04867,26919
6.05438,25034
6.06010,22439
6.06583,22063
6.07155,21532
6.07727,25717
6.08300,58152
6.08872,148700
6.09443,315124
6.10017,480902
6.10588,510073
6.11160,384447
6.11732,212475
6.12305,111715
6.12877,68552
6.13448,56381
6.14022,49089
6.14593,36876
6.15165,30741
6.15738,28435
6.16310,30194
6.16882,30430
6.17455,31815
6.18027,28881
6.18598,31841
6.19172,39917
6.19743,47607
6.20315,48300
6.20888,40268
6.21460,30989
6.22032,25560
6.22605,21378
6.23177,20167
6.23748,16958
6.24322,15685
6.24893,15276
6.25465,12770
6.26038,13072
6.26610,13843
6.27182,14451
6.27755,14272
6.28327,12389
6.28898,9673
6.29470,8578
6.30043,10631
6.30615,9527
6.31187,9579
6.31760,9134
6.32332,9954
6.32903,7130
6.33477,6521
6.34048,6051
6.34620,6383
6.35193,6551
6.35765,5276
6.36337,6484
6.36910,7016
6.37482,5827
6.38053,7149
6.38627,6365
6.39198,7736
6.39770,5964
6.40343,5753
6.40915,5730
6.41487,7652
6.42060,5994
6.42632,6903
6.43203,7915
6.43777,7368
6.44348,7211
6.44920,6873
6.45493,5103
6.46065,4772
6.46637,5406
6.47208,4870
6.47782,6319
6.48353,6257
6.48925,6662
6.49498,6509
6.50070,6674
6.50642,8304
6.51215,9655
6.51787,10644
6.52358,7566
6.52932,7377
6.53503,5061
6.54075,5656
6.54648,7313
6.55220,7424
6.55792,6889
6.56365,8021
6.56937,7921
6.57508,8463
6.58082,7387
6.58653,9885
6.59225,9016
6.59798,9014
6.60370,7919
6.60942,8142
6.61515,7786
6.62087,8293
6.62658,7400
6.63232,7049
6.63803,6664
6.64375,5625
6.64948,5960
6.65520,7156
6.66092,5886
6.66663,6883
6.67237,6081
6.67808,5117
6.68380,6474
6.68953,8939
6.69525,15651
6.70097,23904
6.70670,31503
6.71242,28565
6.71813,20865
6.72387,13310
6.72958,10397
6.73530,6749
6.74103,6364
6.74675,8553
6.75247,9273
6.75820,10720
6.76392,8171
6.76963,7493
6.77537,6781
6.78108,7413
6.78680,7331
6.79253,7835
6.79825,8130
6.80397,6656
6.80970,7565
6.81542,8071
6.82113,8459
6.82687,7572
6.83258,8213
6.83830,8157
6.84402,8234
6.84975,6649
6.85547,4382
6.86118,5302
6.86692,3997
6.87263,2622
6.87835,3164
6.88408,5285
6.88980,4771
6.89552,5873
6.90125,5153
6.90697,4361
6.91268,3648
6.91842,3857
6.92413,3659
6.92985,3835
6.93558,3785
6.94130,3886
6.94702,4538
6.95275,6008
6.95847,7976
6.96418,9002
6.96992,7940
6.97563,8099
6.98135,4963
6.98708,4729
6.99280,3850
6.99852,4495
7.00425,3486
7.00997,3963
7.01568,3419
7.02140,3660
7.02713,3809
7.03285,3245
7.03857,2720
7.04430,3110
7.05002,3205
7.05573,3003
7.06147,3624
7.06718,3370
7.07290,3852
7.07863,4241
7.08435,3916
7.09007,2539
7.09580,2602
7.10152,1862
7.10723,2597
7.11297,2309
7.11868,2681
7.12440,2756
7.13013,3620
7.13585,2533
7.14157,2381
7.14730,2406
7.15302,2452
7.15873,1796
7.16447,1567
7.17018,3092
7.17590,4101
7.18163,3746
7.18735,3446
7.19307,4147
7.19878,4485
7.20452,4155
7.21023,4204
7.21595,5540
7.22168,4307
7.22740,3580
7.23312,3530
7.23885,2574
7.24457,2020
7.25028,2829
7.25602,2859
7.26173,3562
7.26745,4588
7.27318,5667
7.27890,5451
7.28462,5154
7.29035,4016
7.29607,3480
7.30178,2275
7.30752,2933
7.31323,2002
7.31895,3635
7.32468,2615
7.33040,4291
7.33612,3659
7.34185,3011
7.34757,2551
7.35328,2071
7.35902,1785
7.36473,1997
7.37045,2368
7.37617,2820
7.38190,2406
7.38762,2524
7.39333,2389
7.39907,2251
7.40478,1955
7.41050,2409
7.41623,1791
7.42195,1874
7.42767,2478
7.43340,1986
7.43912,2734
7.44483,1425
7.45057,2121
7.45628,3180
7.46200,6492
7.46773,17770
7.47345,38045
7.47917,74208
7.48490,106402
7.49062,115871
7.49633,99436
7.50207,67659
7.50778,35727
7.51350,24012
7.51923,18141
7.52495,17325
7.53067,20102
7.53640,21522
7.54212,17866
7.54783,13349
7.55357,9000
7.55928,8767
7.56500,6580
7.57072,4976
7.57645,4352
7.58217,2976
7.58788,2189
7.59362,1596
7.59933,2709
7.60505,2254
7.61078,2902
7.61650,2550
7.62222,3656
7.62795,2655
7.63367,2059
7.63938,2169
7.64512,2409
7.65083,3115
7.65655,2423
7.66228,2319
7.66800,2216
7.67372,2867
7.67945,2959
7.68517,2992
7.69088,3293
7.69662,3362
7.70233,2943
7.70805,3384
7.71378,2452
7.71950,2179
7.72522,2687
7.73095,1849
7.73667,2611
7.74238,2953
7.74810,2499
7.75383,2684
7.75955,3063
7.76527,2814
7.77100,2666
7.77672,2276
7.78243,2397
7.78817,1961
7.79388,2219
7.79960,1902
7.80533,2169
7.81105,2275
7.81677,2017
7.82250,1587
7.82822,1636
7.83393,2088
7.83967,1828
7.84538,1729
7.85110,2428
7.85683,1396
7.86255,2094
7.86827,2359
7.87400,1936
7.87972,1508
7.88543,1777
7.89117,2229
7.89688,2282
7.90260,2146
7.90833,2473
7.91405,1985
7.91977,1918
7.92548,1598
7.93122,2192
7.93693,1195
7.94265,1696
7.94838,1877
7.95410,2667
7.95982,1734
7.96555,2294
7.97127,2616
7.97698,2024
7.98272,2214
7.98843,1635
7.99415,2151
7.99988,2360
8.00560,2867
8.01132,1440
8.01705,2072
8.02277,2814
8.02848,2697
8.03422,2208
8.03993,2344
8.04565,2230
8.05138,2160
8.05710,1996
8.06282,2341
8.06855,2517
8.07427,1939
8.07998,2015
8.08572,2278
8.09143,1770
8.09715,1629
8.10287,2094
8.10860,2343
8.11432,1751
8.12003,1987
8.12577,3248
8.13148,2231
8.13720,3636
8.14293,4409
8.14865,5414
8.15437,10291
8.16010,13991
8.16582,19974
8.17153,21307
8.17727,20871
8.18298,19174
8.18870,13769
8.19443,11514
8.20015,8953
8.20587,6703
8.21160,4136
8.21732,3413
8.22303,2769
8.22877,2120
8.23448,2625
8.24020,2123
8.24593,2482
8.25165,2325
8.25737,1919
8.26310,2052
8.26882,1822
8.27453,2760
8.28027,2009
8.28598,3066
8.29170,2937
8.29742,1621
8.30315,1794
8.30887,2523
8.31458,2356
8.32032,1710
8.32603,2319
8.33175,1861
8.33748,1792
8.34320,2066
8.34892,1705
8.35465,2641
8.36037,1894
8.36608,2505
8.37182,3072
8.37753,3401
8.38325,2599
8.38898,2554
8.39470,1949
8.40042,2177
8.40615,1612
8.41187,2715
8.41758,2261
8.42332,1930
8.42903,2628
8.43475,1770
8.44048,1446
8.44620,2680
8.45192,1743
8.45765,1972
8.46337,3184
8.46908,1771
8.47480,2449
8.48053,2401
8.48625,2079
8.49197,2105
8.49770,1582
8.50342,2375
8.50913,2059
8.51487,1585
8.52058,2009
8.52630,2033
8.53203,2283
8.53775,2446
8.54347,2189
8.54920,2865
8.55492,2503
8.56063,3001
8.56637,3012
8.57208,3515
8.57780,2319
8.58353,1986
8.58925,1704
8.59497,1817
8.60070,1914
8.60642,1798
8.61213,1846
8.61787,2036
8.62358,1909
8.62930,1868
8.63503,1720
8.64075,1970
8.64647,1874
8.65218,2289
8.65792,1772
8.66363,1749
8.66935,2136
8.67508,1830
8.68080,2255
8.68652,1838
8.69225,2516
8.69797,1654
8.70368,2234
8.70942,1643
8.71513,1385
8.72085,1839
8.72658,1979
8.73230,2041
8.73802,2134
8.74375,2824
8.74947,3582
8.75518,5696
8.76092,9209
8.76663,10757
8.77235,10441
8.77808,9779
8.78380,7461
8.78952,6066
8.79525,3543
8.80097,3008
8.80668,3135
8.81242,2492
8.81813,2574
8.82385,3758
8.82957,3114
8.83530,3995
8.84102,2035
8.84673,2733
8.85247,1701
8.85818,1922
8.86390,2451
8.86963,2193
8.87535,2124
8.88107,2308
8.88680,2751
8.89252,3810
8.89823,5644
8.90397,5062
8.90968,4273
8.91540,3461
8.92113,2912
8.92685,1928
8.93257,2139
8.93830,1948
8.94402,1464
8.94973,1837
8.95547,1790
8.96118,1521
8.96690,2174
8.97263,1704
8.97835,1314
8.98407,1591
8.98980,1879
8.99552,1770
9.00123,2010
9.00695,2218
9.01268,1858
9.01840,2355
9.02412,1379
9.02985,1656
9.03557,2320
9.04128,1812
9.04702,2211
9.05273,1542
9.05845,2129
9.06418,2199
9.06990,1506
9.07562,1552
9.08135,1708
9.08707,1574
9.09278,1573
9.09852,1525
9.10423,1764
9.10995,2476
9.11568,1458
9.12140,1581
9.12712,2053
9.13285,1642
9.13857,2743
9.14428,3129
9.15002,3806
9.15573,5782
9.16145,6361
9.16718,5774
9.17290,4772
9.17862,3206
9.18433,2467
9.19007,2015
9.19578,1573
9.20150,2599
9.20723,2243
9.21295,2329
9.21867,1375
9.22440,1326
9.23012,2124
9.23583,1594
9.24157,2224
9.24728,1964
9.25300,2682
9.25873,3550
9.26445,4708
9.27017,5623
9.27590,5110
9.28162,4292
9.28733,3502
9.29307,2613
9.29878,2136
9.30450,2516
9.31023,2020
9.31595,1974
9.32167,2052
9.32740,3019
9.33312,2960
9.33883,3280
9.34457,2997
9.35028,2928
9.35600,2468
9.36173,2902
9.36745,2225
9.37317,2818
9.37888,2784
9.38462,1700
9.39033,2094
9.39605,2512
9.40178,1363
9.40750,2115
9.41322,1174
9.41895,2568
9.42467,2173
9.43038,2363
9.43612,2262
9.44183,1935
9.44755,2194
9.45328,1908
9.45900,1719
9.46472,1694
9.47045,1107
9.47617,1744
9.48188,1996
9.48762,2330
9.49333,2287
9.49905,1414
9.50478,1783
9.51050,1795
9.51622,1552
9.52195,2191
9.52767,1410
9.53338,1925
9.53912,2590
9.54483,2185
9.55055,1755
9.55627,2103
9.56200,2001
9.56772,1691
9.57343,1550
9.57917,2015
9.58488,2283
9.59060,2194
9.59633,2068
9.60205,2056
9.60777,2237
9.61350,1494
9.61922,2221
9.62493,2034
9.63067,2047
9.63638,1577
9.64210,1300
9.64783,1767
9.65355,2237
9.65927,1761
9.66500,1683
9.67072,1883
9.67643,1448
9.68217,1688
9.68788,2549
9.69360,1744
9.69933,2492
9.70505,1896
9.71077,1755
9.71650,1834
9.72222,1759
9.72793,2172
9.73365,1814
9.73938,1928
9.74510,1878
9.75082,2110
9.75655,1688
9.76227,2398
9.76798,1760
9.77372,1390
9.77943,1768
9.78515,1761
9.79088,1855
9.79660,1793
9.80232,1929
9.80805,1993
9.81377,1823
9.81948,1998
9.82522,2072
9.83093,2621
9.83665,1531
9.84238,2155
9.84810,1888
9.85382,1702
9.85955,1827
9.86527,1795
9.87098,1890
9.87672,2803
9.88243,2322
9.88815,2066
9.89388,2283
9.89960,1797
9.90532,4762
9.91103,8867
9.91677,24840
9.92248,59879
9.92820,131497
9.93393,266206
9.93965,456091
9.94537,634317
9.95110,670300
9.95682,520739
9.96253,285685
9.96827,125229
9.97398,44263
9.97970,14975
9.98543,6568
9.99115,4693
9.99687,3796
10.00260,4112
10.00832,3907
10.01403,3112
10.01977,2162
10.02548,1994
10.03120,1918
10.03693,2188
10.04265,2125
10.04837,1650
10.05410,1998
10.05982,2743
10.06553,2212
10.07127,2565
10.07698,3032
10.08270,3499
10.08843,4190
10.09415,2902
10.09987,3128
10.10558,3024
10.11132,2535
10.11703,3227
10.12275,1926
10.12848,2632
10.13420,2088
10.13992,1746
10.14565,2697
10.15137,2789
10.15708,2121
10.16282,2699
10.16853,2396
10.17425,2511
10.17998,2726
10.18570,2702
10.19142,4101
10.19715,1830
10.20287,3267
10.20858,1495
10.21432,2669
10.22003,3092
10.22575,2509
10.23148,2086
10.23720,2598
10.24292,1955
10.24865,1747
10.25437,1922
10.26008,2251
10.26580,1872
10.27153,2157
10.27725,2281
10.28297,3045
10.28870,2613
10.29442,2261
10.30013,1865
10.30587,1632
10.31158,1794
10.31730,4158
10.32303,2561
10.32875,2004
10.33447,2356
10.34020,2261
10.34592,2225
10.35163,1944
10.35737,2080
10.36308,2274
10.36880,1432
10.37453,1506
10.38025,1497
10.38597,1328
10.39170,1062
10.39742,1481
10.40313,1848
10.40887,1881
10.41458,1808
10.42030,1920
10.42603,1627
10.43175,2814
10.43747,4021
10.44320,4764
10.44892,3683
10.45463,3406
10.46035,3785
10.46608,3328
10.47180,3412
10.47752,3807
10.48325,3308
10.48897,3486
10.49468,2961
10.50042,2765
10.50613,2372
10.51185,2380
10.51758,2790
10.52330,2796
10.52902,2980
10.53475,2764
10.54047,3033
10.54618,2580
10.55192,1974
10.55763,2292
10.56335,1950
10.56908,3039
10.57480,1515
10.58052,2448
10.58625,2613
10.59197,1813
10.59768,2437
10.60342,2077
10.60913,1590
10.61485,2139
10.62058,2551
10.62630,2904
10.63202,1706
10.63773,1713
10.64347,1890
10.64918,2522
10.65490,2900
10.66063,3598
10.66635,3561
10.67207,3926
10.67780,2713
10.68352,1932
10.68923,1962
10.69497,2881
10.70068,2342
10.70640,2487
10.71213,2009
10.71785,1879
10.72357,2082
10.72930,1525
10.73502,2534
10.74073,1450
10.74647,1977
10.75218,1740
10.75790,1964
10.76363,1742
10.76935,1486
10.77507,1818
10.78080,2260
10.78652,1876
10.79223,2194
10.79797,2318
10.80368,2086
10.80940,2385
10.81512,2576
10.82085,2217
10.82657,2740
10.83228,1729
10.83802,1842
10.84373,2381
10.84945,2100
10.85518,2331
10.86090,1913
10.86662,1908
10.87235,1734
10.87807,2527
10.88378,2224
10.88952,2224
10.89523,1945
10.90095,2534
10.90668,1788
10.91240,2708
10.91812,3291
10.92385,4236
10.92957,5215
10.93528,3823
10.94102,3007
10.94673,2857
10.95245,3017
10.95818,1674
10.96390,2539
10.96962,2638
10.97535,2209
10.98107,2398
10.98678,1951
10.99250,2630
10.99823,3115
11.00395,2667
11.00967,1572
11.01540,2472
11.02112,1847
11.02683,2143
11.03257,2374
11.03828,1741
11.04400,1878
11.04973,1666
11.05545,1911
11.06117,2002
11.06690,1886
11.07262,2376
11.07833,2570
11.08407,2134
11.08978,2377
11.09550,2478
11.10123,2165
11.10695,1350
11.11267,2118
11.11840,2159
11.12412,1759
11.12983,2603
11.13557,2042
11.14128,1939
11.14700,3063
11.15273,3395
11.15845,2602
11.16417,2291
11.16990,2120
11.17562,1885
11.18133,2385
11.18705,1492
11.19278,2381
11.19850,2968
11.20422,1751
11.20995,2023
11.21567,2592
11.22138,2011
11.22712,2212
11.23283,1984
11.23855,2588
11.24428,2333
11.25000,1772
11.25572,1866
11.26145,1674
11.26717,2142
11.27288,2641
11.27862,1735
11.28433,2353
11.29005,2347
11.29578,2229
11.30150,2417
11.30722,2536
11.31295,1803
11.31867,2100
11.32438,2086
11.33012,1237
11.33583,1894
11.34155,1384
11.34728,2301
11.35300,1389
11.35872,1583
11.36443,2112
11.37017,1860
11.37588,1432
11.38160,1618
11.38733,2506
11.39305,1848
11.39877,896
11.40450,2282
11.41022,1307
11.41593,1849
11.42167,1567
11.42738,1557
11.43310,2741
11.43883,2797
11.44455,4187
11.45027,4195
11.45600,4882
11.46172,3797
11.46743,2560
11.47317,2035
11.47888,2607
11.48460,2267
11.49033,1555
11.49605,1882
11.50177,2330
11.50750,1698
11.51322,2210
11.51893,1638
11.52467,1321
11.53038,2208
11.53610,2620
11.54182,1864
11.54755,1504
11.55327,1587
11.55898,2172
11.56472,2165
11.57043,1533
11.57615,1670
11.58188,1560
11.58760,1540
11.59332,2078
11.59905,2453
11.60477,1699
11.61048,1611
11.61622,1649
11.62193,1860
11.62765,1980
11.63338,2774
11.63910,2145
11.64482,1840
11.65055,2986
11.65627,3435
11.66198,4904
11.66772,4031
11.67343,4090
11.67915,2646
11.68488,2272
11.69060,1892
11.69632,2540
11.70205,1621
11.70777,1612
11.71348,2252
11.71920,2351
11.72493,1933
11.73065,2739
11.73637,2458
11.74210,2333
11.74782,2344
11.75353,1837
11.75927,3466
11.76498,5543
11.77070,9081
11.77643,15650
11.78215,17763
11.78787,19788
11.79360,13718
11.79932,9625
11.80503,6763
11.81077,3824
11.81648,2771
11.82220,3665
11.82793,5238
11.83365,15198
11.83937,31860
11.84510,70137
11.85082,129636
11.85653,181359
11.86227,201814
11.86798,172007
11.87370,110590
11.87943,59713
11.88515,34995
11.89087,19415
11.89658,16274
11.90232,13206
11.90803,9898
11.91375,9325
11.91948,9086
11.92520,6666
11.93092,5374
11.93665,5547
11.94237,4760
11.94808,4797
11.95382,3190
11.95953,4750
11.96525,6572
11.97098,9466
11.97670,9830
11.98242,9939
11.98815,9877
11.99387,6048
11.99958,4199
12.00532,4235
12.01103,4126
12.01675,2503
12.02248,2860
12.02820,3208
12.03392,3018
12.03965,3414
12.04537,2421
12.05108,2591
12.05682,2498
12.06253,3403
12.06825,2827
12.07398,1979
12.07970,2826
12.08542,2586
12.09113,2041
12.09687,3797
12.10258,2324
12.10830,2904
12.11403,3428
12.11975,3313
12.12547,3595
12.13120,1760
12.13692,2354
12.14263,3172
12.14837,7623
12.15408,16223
12.15980,44748
12.16553,105616
12.17125,222291
12.17697,367224
12.18270,481156
12.18842,479764
12.19413,328023
12.19987,163709
12.20558,61490
12.21130,18678
12.21703,7697
12.22275,5087
12.22847,4802
12.23420,4135
12.23992,3864
12.24563,3903
12.25137,3555
12.25708,3372
12.26280,3109
12.26852,3586
12.27425,3011
12.27997,4434
12.28568,5163
12.29142,3941
12.29713,3631
12.30285,2970
12.30858,2353
12.31430,3105
12.32002,3638
12.32575,3443
12.33147,2820
12.33718,2936
12.34292,3793
12.34863,3724
12.35435,3136
12.36008,4439
12.36580,4399
12.37152,4266
12.37725,4191
12.38297,4505
12.38868,3214
12.39442,2989
12.40013,2963
12.40585,2004
12.41158,2200
12.41730,3223
12.42302,2165
12.42875,2452
12.43447,2957
12.44018,3543
12.44590,3799
12.45163,3196
12.45735,2775
12.46307,3118
12.46880,2061
12.47452,2382
12.48023,2448
12.48597,1803
12.49168,2383
12.49740,2472
12.50313,2594
12.50885,2915
12.51457,3107
12.52030,2681
12.52602,2387
12.53173,2921
12.53747,2531
12.54318,2330
12.54890,2835
12.55463,3063
12.56035,1793
12.56607,2974
12.57180,2114
12.57752,2494
12.58323,2378
12.58897,3078
12.59468,3292
12.60040,3026
12.60613,1388
12.61185,2699
12.61757,2308
12.62328,2804
12.62902,2204
12.63473,3182
12.64045,3688
12.64618,3389
12.65190,2203
12.65762,2880
12.66335,3618
12.66907,3443
12.67478,3480
12.68052,2934
12.68623,3725
12.69195,3445
12.69768,4858
12.70340,7256
12.70912,11525
12.71485,11422
12.72057,8534
12.72628,5551
12.73202,4450
12.73773,3477
12.74345,2879
12.74918,3331
12.75490,3713
12.76062,3097
12.76635,2707
12.77207,2177
12.77778,3808
12.78352,4521
12.78923,5988
12.79495,6323
12.80067,5763
12.80640,5271
12.81212,4777
12.81783,3384
12.82357,5641
12.82928,7027
12.83500,5928
12.84073,5024
12.84645,4456
12.85217,3829
12.85790,3519
12.86362,3997
12.86933,3376
12.87507,3325
12.88078,3656
12.88650,3830
12.89223,3263
12.89795,3211
12.90367,3314
12.90940,1650
12.91512,2752
12.92083,3063
12.92657,3260
12.93228,4749
12.93800,6277
12.94373,6445
12.94945,5775
12.95517,4161
12.96090,4829
12.96662,4450
12.97233,3074
12.97805,2995
12.98378,3864
12.98950,4192
12.99522,4614
13.00095,3887
13.00667,3435
13.01238,3092
13.01812,2033
13.02383,2045
13.02955,2433
13.03528,1873
13.04100,2531
13.04672,2214
13.05245,3981
13.05817,3970
13.06388,4191
13.06962,5350
13.07533,4462
13.08105,4670
13.08678,4371
13.09250,4494
13.09822,4593
13.10395,4416
13.10967,4262
13.11538,4042
13.12112,3657
13.12683,3579
13.13255,2841
13.13828,2682
13.14400,3269
13.14972,2436
13.15545,3138
13.16117,2943
13.16688,1789
13.17260,1898
13.17833,2857
13.18405,2114
13.18977,2507
13.19550,2189
13.20122,2853
13.20693,3654
13.21267,4280
13.21838,2994
13.22410,3721
13.22983,2481
13.23555,2262
13.24127,2566
13.24700,2629
13.25272,2761
13.25843,2541
13.26417,2613
13.26988,3048
13.27560,3937
13.28133,3698
13.28705,1647
13.29277,2667
13.29850,2843
13.30422,3333
13.30993,1752
13.31567,2512
13.32138,2848
13.32710,2130
13.33283,2164
13.33855,1906
13.34427,2938
13.34998,2536
13.35572,2235
13.36143,2276
13.36715,2003
13.37288,2701
13.37860,4024
13.38432,3999
13.39005,5646
13.39577,5986
13.40148,4371
13.40722,3041
13.41293,2743
13.41865,3013
13.42438,3441
13.43010,2540
13.43582,2613
13.44155,2739
13.44727,2388
13.45298,2965
13.45872,2970
13.46443,2893
13.47015,4125
13.47588,5085
13.48160,6042
13.48732,7472
13.49305,7309
13.49877,5690
13.50448,5854
13.51022,4879
13.51593,4356
13.52165,4051
13.52737,4196
13.53310,4257
13.53882,3824
13.54453,3531
13.55027,3226
13.55598,3679
13.56170,4063
13.56743,3707
13.57315,3925
13.57887,3719
13.58460,3981
13.59032,2918
13.59603,3828
13.60177,2872
13.60748,2860
13.61320,3051
13.61893,2292
13.62465,3521
13.63037,2848
13.63610,2837
13.64182,2762
13.64753,3202
13.65327,3069
13.65898,2433
13.66470,1826
13.67043,2433
13.67615,2901
13.68187,2908
13.68760,2805
13.69332,3067
13.69903,2728
13.70475,2004
13.71048,2428
13.71620,3146
13.72192,2785
13.72765,4087
13.73337,4881
13.73908,5933
13.74482,6482
13.75053,6207
13.75625,5286
13.76198,4329
13.76770,4399
13.77342,3937
13.77915,3573
13.78487,3360
13.79058,4042
13.79632,3176
13.80203,3539
13.80775,4550
13.81348,3073
13.81920,3237
13.82492,2725
13.83065,2580
13.83637,3785
13.84208,4371
13.84782,3869
13.85353,5788
13.85925,8191
13.86498,22472
13.87070,46839
13.87642,92064
13.88215,129581
13.88787,142432
13.89358,110615
13.89930,71841
13.90503,37520
13.91075,19462
13.91647,13677
13.92220,10241
13.92792,7719
13.93363,7272
13.93937,6280
13.94508,5707
13.95080,5458
13.95653,6814
13.96225,5386
13.96797,5180
13.97370,5314
13.97942,5151
13.98513,5013
13.99087,4013
13.99658,5023
14.00230,4400
14.00803,4096
14.01375,3207
14.01947,4124
14.02520,4133
14.03092,3722
14.03663,3542
14.04237,3401
14.04808,3650
14.05380,3594
14.05952,3633
14.06525,3832
14.07097,4584
14.07668,3908
14.08242,4749
14.08813,3768
14.09385,3114
14.09958,3147
14.10530,2576
14.11102,2806
14.11675,2754
14.12247,3254
14.12818,3083
14.13392,3410
14.13963,4234
14.14535,4362
14.15108,7825
14.15680,19589
14.16252,49193
14.16825,131857
14.17397,321857
14.17968,647005
14.18542,1023240
14.19113,1332785
14.19685,1243534
14.20258,806503
14.20830,347197
14.21402,125146
14.21975,46822
14.22547,22123
14.23118,14179
14.23692,11773
14.24263,10622
14.24835,9608
14.25407,7416
14.25980,6310
14.26552,7030
14.27123,6531
14.27697,5287
14.28268,6046
14.28840,4821
14.29413,5633
14.29985,5043
14.30557,4992
14.31130,5534
14.31702,5063
14.32273,4355
14.32847,5062
14.33418,3963
14.33990,3551
14.34563,4267
14.35135,4249
14.35707,4690
14.36280,4024
14.36852,3523
14.37423,3787
14.37997,4110
14.38568,4187
14.39140,3927
14.39713,5518
14.40285,5128
14.40857,4419
14.41430,5195
14.42002,4215
14.42573,3254
14.43145,4256
14.43718,3973
14.44290,3100
14.44862,3454
14.45435,4866
14.46007,4863
14.46578,6015
14.47152,6086
14.47723,5573
14.48295,4128
14.48868,4239
14.49440,3689
14.50012,5045
14.50585,4133
14.51157,4115
14.51728,5117
14.52302,5940
14.52873,6712
14.53445,4928
14.54018,5552
14.54590,5077
14.55162,4830
14.55735,4127
14.56307,4510
14.56878,4121
14.57452,2827
14.58023,3051
14.58595,3859
14.59168,3490
14.59740,4028
14.60312,4700
14.60883,4853
14.61457,3801
14.62028,4718
14.62600,4166
14.63173,4164
14.63745,3204
14.64317,4331
14.64890,3123
14.65462,3263
14.66033,3914
14.66607,5019
14.67178,6610
14.67750,6341
14.68323,7321
14.68895,6227
14.69467,6020
14.70040,7455
14.70612,7667
14.71183,7234
14.71757,7867
14.72328,7388
14.72900,7915
14.73473,9100
14.74045,11459
14.74617,14217
14.75190,15457
14.75762,11821
14.76333,10833
14.76907,6720
14.77478,5811
14.78050,5672
14.78622,5274
14.79195,4492
14.79767,3789
14.80338,3890
14.80912,3987
14.81483,4637
14.82055,4080
14.82628,2682
14.83200,4504
14.83772,4026
14.84345,6714
14.84917,9657
14.85488,16266
14.86062,25123
14.86633,26152
14.87205,24576
14.87778,18973
14.88350,13556
14.88922,8263
14.89495,6062
14.90067,6751
14.90638,5829
14.91212,6065
14.91783,4610
14.92355,4896
14.92928,4853
14.93500,5449
14.94072,5730
14.94645,5931
14.95217,4582
14.95788,4876
14.96362,5303
14.96933,5095
14.97505,5629
14.98077,5209
14.98650,4411
14.99222,4207
14.99793,4425
15.00367,3595
15.00938,3489
15.01510,4629
15.02083,4098
15.02655,3133
15.03227,3587
15.03800,3923
15.04372,4568
15.04943,2965
15.05517,4053
15.06088,3622
15.06660,3818
15.07233,3017
15.07805,2541
15.08377,4510
15.08950,3795
15.09522,4037
15.10093,3198
15.10667,3425
15.11238,4320
15.11810,3888
15.12383,3772
15.12955,5523
15.13527,8219
15.14100,9918
15.14672,9892
15.15243,8626
15.15815,6676
15.16388,5320
15.16960,3263
15.17532,3844
15.18105,3700
15.18677,3884
15.19248,4041
15.19822,3599
15.20393,3723
15.20965,3266
15.21538,3239
15.22110,3864
15.22682,4216
15.23255,4731
15.23827,4619
15.24398,5527
15.24972,4600
15.25543,3199
15.26115,3506
15.26688,3875
15.27260,3298
15.27832,3805
15.28405,3523
15.28977,3602
15.29548,4339
15.30122,4706
15.30693,4271
15.31265,3779
15.31838,4257
15.32410,4625
15.32982,4521
15.33553,5388
15.34127,5652
15.34698,4237
15.35270,4577
15.35843,3428
15.36415,3363
15.36987,3619
15.37560,3413
15.38132,3745
15.38703,3919
15.39277,3598
15.39848,4318
15.40420,2950
15.40993,4065
15.41565,3363
15.42137,3959
15.42710,3711
15.43282,4349
15.43853,3386
15.44427,4406
15.44998,3773
15.45570,3764
15.46143,2945
15.46715,2837
15.47287,2618
15.47860,2769
15.48432,3540
15.49003,4178
15.49577,4320
15.50148,5050
15.50720,4805
15.51292,4839
15.51865,3739
15.52437,3879
15.53008,2827
15.53582,3491
15.54153,2702
15.54725,2665
15.55298,3658
15.55870,2990
15.56442,2877
15.57015,3377
15.57587,3921
15.58158,3833
15.58732,3966
15.59303,3486
15.59875,2519
15.60448,4131
15.61020,4944
15.61592,4400
15.62165,3870
15.62737,3207
15.63308,3471
15.63882,3028
15.64453,3529
15.65025,3404
15.65598,4616
15.66170,5089
15.66742,6408
15.67315,5184
15.67887,4623
15.68458,4861
15.69030,2699
15.69603,3710
15.70175,2630
15.70747,4277
15.71320,3004
15.71892,4311
15.72463,3566
15.73037,4221
15.73608,4297
15.74180,3628
15.74753,4004
15.75325,3202
15.75897,2155
15.76470,2871
15.77042,2413
15.77613,2533
15.78187,2644
15.78758,3374
15.79330,2953
15.79903,4456
15.80475,2923
15.81047,2976
15.81620,3481
15.82192,3390
15.82763,3240
15.83337,2726
15.83908,2843
15.84480,3778
15.85053,4111
15.85625,2925
15.86197,2920
15.86768,2590
15.87342,3339
15.87913,2758
15.88485,4689
15.89058,7668
15.89630,20910
15.90202,66414
15.90775,185272
15.91347,435537
15.91918,831734
15.92492,1297103
15.93063,1545302
15.93635,1340291
15.94208,807534
15.94780,378700
15.95352,141473
15.95925,59783
15.96497,32942
15.97068,19406
15.97642,15233
15.98213,13971
15.98785,11677
15.99358,10213
15.99930,9820
16.00502,8220
16.01075,7845
16.01647,8162
16.02218,7222
16.02792,6270
16.03363,6576
16.03935,6772
16.04508,6931
16.05080,5779
16.05652,5473
16.06223,5931
16.06797,5253
16.07368,5959
16.07940,5314
16.08513,4969
16.09085,4862
16.09657,6307
16.10230,8583
16.10802,18688
16.11373,50348
16.11947,109063
16.12518,202720
16.13090,292119
16.13663,311121
16.14235,256685
16.14807,150354
16.15380,76305
16.15952,35629
16.16523,23939
16.17097,17676
16.17668,13058
16.18240,13075
16.18813,10227
16.19385,9286
16.19957,9112
16.20530,8920
16.21102,7708
16.21673,8912
16.22247,6913
16.22818,7748
16.23390,7181
16.23962,5958
16.24535,7018
16.25107,6596
16.25678,6582
16.26252,5316
16.26823,5984
16.27395,6881
16.27968,5662
16.28540,6175
16.29112,5325
16.29685,5355
16.30257,5486
16.30828,5332
16.31402,5287
16.31973,4773
16.32545,4376
16.33118,5322
16.33690,4538
16.34262,5625
16.34835,4198
16.35407,4478
16.35978,5142
16.36552,4762
16.37123,5363
16.37695,4610
16.38268,3915
16.38840,3560
16.39412,3540
16.39985,5330
16.40557,4458
16.41128,5339
16.41700,5208
16.42273,6256
16.42845,6633
16.43417,7295
16.43990,7090
16.44562,5242
16.45133,6494
16.45707,7426
16.46278,12125
16.46850,15979
16.47423,21087
16.47995,19807
16.48567,17330
16.49140,12613
16.49712,9827
16.50283,6937
16.50857,5987
16.51428,5358
16.52000,5534
16.52573,7306
16.53145,7671
16.53717,9049
16.54290,9194
16.54862,8541
16.55433,7799
16.56007,6004
16.56578,4185
16.57150,4958
16.57723,5434
16.58295,4980
16.58867,6025
16.59438,6020
16.60012,5577
16.60583,4807
16.61155,4322
16.61728,4805
16.62300,5056
16.62872,4852
16.63445,4593
16.64017,4518
16.64588,4562
16.65162,4680
16.65733,3860
16.66305,3311
16.66878,4140
16.67450,3591
16.68022,3216
16.68595,3390
16.69167,4534
16.69738,3830
16.70312,3528
16.70883,3726
16.71455,3939
16.72028,3365
16.72600,3634
16.73172,4148
16.73745,3959
16.74317,4116
16.74888,3514
16.75462,3520
16.76033,3812
16.76605,3802
16.77177,4229
16.77750,4200
16.78322,3744
16.78893,3787
16.79467,2703
16.80038,3183
16.80610,3185
16.81183,4267
16.81755,3081
16.82327,3300
16.82900,3720
16.83472,3819
16.84043,3506
16.84617,4362
16.85188,3818
16.85760,4269
16.86333,4134
16.86905,4184
16.87477,3457
16.88050,4080
16.88622,2945
16.89193,3466
16.89767,3653
16.90338,4162
16.90910,3776
16.91483,4868
16.92055,4816
16.92627,5178
16.93200,5618
16.93772,5527
16.94343,5051
16.94917,3766
16.95488,4765
16.96060,3234
16.96632,3063
16.97205,3540
16.97777,3326
16.98348,3098
16.98922,4439
16.99493,3350
17.00065,3433
17.00638,4460
17.01210,3130
17.01782,4166
17.02355,4055
17.02927,3768
17.03498,3393
17.04072,2959
17.04643,3996
17.05215,2283
17.05788,3683
17.06360,4530
17.06932,4290
17.07505,4711
17.08077,5084
17.08648,3965
17.09222,3678
17.09793,3115
17.10365,3574
17.10938,3280
17.11510,4046
17.12082,4026
17.12655,4701
17.13227,4501
17.13798,2795
17.14370,2789
17.14943,3149
17.15515,3253
17.16087,3477
17.16660,2791
17.17232,3133
17.17803,3327
17.18377,2990
17.18948,3013
17.19520,3420
17.20093,3226
17.20665,3690
17.21237,3533
17.21810,4298
17.22382,3954
17.22953,3694
17.23527,4274
17.24098,3058
17.24670,3827
17.25243,3688
17.25815,3317
17.26387,3621
17.26960,3815
17.27532,4396
17.28103,4033
17.28677,3686
17.29248,2956
17.29820,3495
17.30393,3657
17.30965,4169
17.31537,4553
17.32108,3489
17.32682,4478
17.33253,6105
17.33825,6203
17.34398,6236
17.34970,4837
17.35542,4032
17.36115,3924
17.36687,3161
17.37258,4303
17.37832,4606
17.38403,3737
17.38975,3341
17.39548,3369
17.40120,3718
17.40692,3412
17.41265,4433
17.41837,3647
17.42408,3145
17.42982,4349
17.43553,4065
17.44125,6711
17.44698,16438
17.45270,55398
17.45842,148989
17.46415,321155
17.46987,585531
17.47558,957084
17.48132,1154730
17.48703,1029060
17.49275,703330
17.49847,378128
17.50420,173529
17.50992,78883
17.51563,41866
17.52137,26758
17.52708,20519
17.53280,14872
17.53853,12851
17.54425,13427
17.54997,11466
17.55570,9648
17.56142,9755
17.56713,9677
17.57287,7828
17.57858,8601
17.58430,7553
17.59003,7002
17.59575,6830
17.60147,7509
17.60720,6242
17.61292,7199
17.61863,7718
17.62437,8930
17.63008,7771
17.63580,6841
17.64153,6534
17.64725,6796
17.65297,6802
17.65870,6563
17.66442,5927
17.67013,6169
17.67585,5282
17.68158,5372
17.68730,5855
17.69302,6010
17.69875,6205
17.70447,5937
17.71018,5685
17.71592,5060
17.72163,5017
17.72735,4780
17.73308,5225
17.73880,5116
17.74452,4964
17.75025,4578
17.75597,4775
17.76168,4518
17.76742,5255
17.77313,5280
17.77885,5723
17.78458,5076
17.79030,5207
17.79602,5149
17.80175,5391
17.80747,5621
17.81318,5122
17.81892,5226
17.82463,5195
17.83035,3973
17.83608,4615
17.84180,5011
17.84752,4656
17.85323,5952
17.85897,5056
17.86468,5162
17.87040,4418
17.87613,4620
17.88185,4477
17.88757,4103
17.89330,3602
17.89902,5633
17.90473,4065
17.91047,4717
17.91618,4287
17.92190,3609
17.92763,4483
17.93335,4668
17.93907,4583
17.94480,5953
17.95052,5990
17.95623,6334
17.96197,5877
17.96768,5653
17.97340,5617
17.97913,6632
17.98485,6282
17.99057,7201
17.99630,6913
18.00202,7662
18.00773,10674
18.01347,16516
18.01918,22303
18.02490,25451
18.03063,25159
18.03635,17491
18.04207,12460
18.04778,10730
18.05352,11388
18.05923,9752
18.06495,11165
18.07068,10097
18.07640,9432
18.08212,8953
18.08785,7404
18.09357,6600
18.09928,6752
18.10502,6359
18.11073,6233
18.11645,5425
18.12218,5569
18.12790,4880
18.13362,5107
18.13935,4588
18.14507,4694
18.15078,5116
18.15652,5186
18.16223,5307
18.16795,4573
18.17368,4673
18.17940,4240
18.18512,4130
18.19085,4918
18.19657,5530
18.20228,4118
18.20802,5418
18.21373,4492
18.21945,5407
18.22517,5600
18.23090,4833
18.23662,4529
18.24233,4381
18.24807,4308
18.25378,5199
18.25950,4813
18.26523,5094
18.27095,5941
18.27667,5323
18.28240,4599
18.28812,5237
18.29383,4454
18.29957,4747
18.30528,3521
18.31100,5054
18.31673,5137
18.32245,4733
18.32817,4088
18.33390,3703
18.33962,3981
18.34533,4604
18.35107,4684
18.35678,5494
18.36250,4573
18.36823,4320
18.37395,4647
18.37967,4215
18.38540,4572
18.39112,5220
18.39683,4825
18.40255,4383
18.40828,4249
18.41400,4221
18.41972,4630
18.42545,3576
18.43117,4982
18.43688,4036
18.44262,4713
18.44833,5028
18.45405,3559
18.45978,4114
18.46550,4857
18.47122,3529
18.47695,4024
18.48267,4291
18.48838,3942
18.49412,5359
18.49983,4859
18.50555,5070
18.51128,5990
18.51700,6094
18.52272,4626
18.52845,5381
18.53417,4770
18.53988,4947
18.54562,3974
18.55133,4732
18.55705,4746
18.56278,6675
18.56850,7773
18.57422,7316
18.57993,7464
18.58567,6513
18.59138,6011
18.59710,5553
18.60283,5027
18.60855,6237
18.61427,5254
18.62000,4792
18.62572,5336
18.63143,4645
18.63717,4705
18.64288,5557
18.64860,5766
18.65433,5389
18.66005,3743
18.66577,5101
18.67150,4367
18.67722,4503
18.68293,4678
18.68867,5005
18.69438,4926
18.70010,4862
18.70583,4853
18.71155,5181
18.71727,4143
18.72300,5484
18.72872,4585
18.73443,4936
18.74017,4742
18.74588,5372
18.75160,4382
18.75733,5143
18.76305,4886
18.76877,5058
18.77448,5022
18.78022,6292
18.78593,10579
18.79165,21603
18.79738,38809
18.80310,64653
18.80882,78676
18.81455,82622
18.82027,60835
18.82598,42265
18.83172,29217
18.83743,19019
18.84315,16533
18.84888,14319
18.85460,12029
18.86032,14286
18.86605,15186
18.87177,31222
18.87748,84691
18.88322,193143
18.88893,390045
18.89465,607824
18.90038,806127
18.90610,804622
18.91182,637219
18.91755,391225
18.92327,212675
18.92898,106566
18.93470,56351
18.94043,37396
18.94615,29616
18.95187,24923
18.95760,23829
18.96332,22652
18.96903,18989
18.97477,15989
18.98048,17596
18.98620,15063
18.99193,13191
18.99765,13502
19.00337,12435
19.00910,14058
19.01482,12529
19.02053,13940
19.02627,14083
19.03198,13049
19.03770,13053
19.04343,10778
19.04915,10298
19.05487,9279
19.06060,9058
19.06632,8684
19.07203,10595
19.07777,10136
19.08348,7576
19.08920,10724
19.09493,9099
19.10065,9237
19.10637,9373
19.11210,7644
19.11782,7854
19.12353,9012
19.12925,8076
19.13498,8724
19.14070,9420
19.14642,8123
19.15215,8133
19.15787,8626
19.16358,7427
19.16932,7766
19.17503,7553
19.18075,7692
19.18648,7853
19.19220,8012
19.19792,6980
19.20365,7763
19.20937,7429
19.21508,6865
19.22082,8148
19.22653,7153
19.23225,7960
19.23798,8316
19.24370,6929
19.24942,6806
19.25515,8051
19.26087,9104
19.26658,7704
19.27232,6060
19.27803,6389
19.28375,6807
19.28948,6766
19.29520,6826
19.30092,7110
19.30663,7420
19.31237,6505
19.31808,7113
19.32380,7809
19.32953,7398
19.33525,8945
19.34097,9167
19.34670,8484
19.35242,8845
19.35813,7695
19.36387,8018
19.36958,7857
19.37530,7576
19.38103,7008
19.38675,8626
19.39247,8127
19.39820,7154
19.40392,9395
19.40963,9413
19.41537,12132
19.42108,17182
19.42680,22593
19.43253,30224
19.43825,35732
19.44397,31028
19.44970,27498
19.45542,22513
19.46113,19304
19.46687,17800
19.47258,15252
19.47830,11998
19.48402,10448
19.48975,9716
19.49547,9916
19.50118,7859
19.50692,9848
19.51263,9518
19.51835,7931
19.52408,6529
19.52980,7979
19.53552,7411
19.54125,8477
19.54697,7048
19.55268,7840
19.55842,6988
19.56413,6688
19.56985,7481
19.57558,7564
19.58130,8565
19.58702,8836
19.59275,7048
19.59847,7242
19.60418,8033
19.60992,6458
19.61563,7094
19.62135,6936
19.62708,7756
19.63280,7342
19.63852,7518
19.64425,8101
19.64997,8440
19.65568,8597
19.66140,8047
19.66713,8229
19.67285,7521
19.67857,7658
19.68430,7612
19.69002,8585
19.69573,7249
19.70147,6683
19.70718,6844
19.71290,7692
19.71863,7295
19.72435,7861
19.73007,8259
19.73580,8185
19.74152,8013
19.74723,7283
19.75297,7180
19.75868,6870
19.76440,7503
19.77013,7151
19.77585,7092
19.78157,7340
19.78730,6956
19.79302,6354
19.79873,7244
19.80447,7366
19.81018,7016
19.81590,7974
19.82163,8302
19.82735,8513
19.83307,8816
19.83880,7688
19.84452,6912
19.85023,8745
19.85595,6785
19.86168,7346
19.86740,7528
19.87312,7380
19.87885,6574
19.88457,6146
19.89028,6652
19.89602,7372
19.90173,7071
19.90745,8106
19.91318,8421
19.91890,8443
19.92462,7509
19.93035,8331
19.93607,7501
19.94178,7654
19.94752,8162
19.95323,8864
19.95895,7637
19.96468,7836
19.97040,8180
19.97612,6900
19.98185,6774
19.98757,7360
19.99328,6454
19.99902,7245
20.00473,7786
20.01045,6940
20.01618,6208
20.02190,8012
20.02762,7154
20.03333,7460
20.03907,7905
20.04478,8269
20.05050,7212
20.05623,7160
20.06195,7253
20.06767,7993
20.07340,6543
20.07912,8314
20.08483,6806
20.09057,7385
20.09628,8587
20.10200,7272
20.10773,8403
20.11345,9486
20.11917,7499
20.12490,9297
20.13062,8438
20.13633,8243
20.14207,7473
20.14778,7025
20.15350,9071
20.15923,13862
20.16495,28005
20.17067,72723
20.17640,166128
20.18212,309664
20.18783,489945
20.19357,645819
20.19928,684941
20.20500,534178
20.21072,343803
20.21645,187788
20.22217,98788
20.22788,54077
20.23362,39735
20.23933,28464
20.24505,24193
20.25078,21743
20.25650,19413
20.26222,20078
20.26795,16817
20.27367,15290
20.27938,15050
20.28512,13122
20.29083,15189
20.29655,14270
20.30228,13622
20.30800,13218
20.31372,14658
20.31945,12613
20.32517,13932
20.33088,13254
20.33662,14171
20.34233,13345
20.34805,12069
20.35378,11883
20.35950,12514
20.36522,12884
20.37095,11103
20.37667,11352
20.38238,12300
20.38810,12628
20.39383,11139
20.39955,10230
20.40527,11087
20.41100,10591
20.41672,10245
20.42243,10537
20.42817,9985
20.43388,10713
20.43960,10146
20.44533,11255
20.45105,11009
20.45677,10929
20.46250,12185
20.46822,11693
20.47393,11154
20.47967,10672
20.48538,10988
20.49110,11016
20.49683,10959
20.50255,10655
20.50827,11428
20.51400,10252
20.51972,11711
20.52543,11263
20.53117,11398
20.53688,10375
20.54260,12180
20.54833,10366
20.55405,9796
20.55977,10558
20.56548,10108
20.57122,12286
20.57693,10552
20.58265,9909
20.58838,11095
20.59410,11577
20.59982,11787
20.60555,12062
20.61127,12732
20.61698,11286
20.62272,12305
20.62843,11938
20.63415,11741
20.63988,10128
20.64560,10094
20.65132,11581
20.65705,12048
20.66277,10459
20.66848,9903
20.67422,11858
20.67993,9231
20.68565,10811
20.69138,9626
20.69710,11998
20.70282,10654
20.70855,12484
20.71427,13697
20.71998,18878
20.72572,26611
20.73143,37208
20.73715,45932
20.74287,49688
20.74860,45786
20.75432,34418
20.76003,24714
20.76577,18561
20.77148,15108
20.77720,13871
20.78293,12821
20.78865,13553
20.79437,12438
20.80010,11712
20.80582,12733
20.81153,11271
20.81727,12782
20.82298,13091
20.82870,13213
20.83443,13263
20.84015,13137
20.84587,13122
20.85160,10648
20.85732,11521
20.86303,12096
20.86877,12592
20.87448,12405
20.88020,12539
20.88593,13265
20.89165,17728
20.89737,18619
20.90310,18631
20.90882,16763
20.91453,16173
20.92025,13106
20.92598,13823
20.93170,13138
20.93742,12486
20.94315,12716
20.94887,12062
20.95458,11610
20.96032,11504
20.96603,12053
20.97175,12863
20.97748,12835
20.98320,11400
20.98892,11707
20.99465,12539
21.00037,12342
21.00608,10788
21.01182,11597
21.01753,12749
21.02325,11348
21.02898,13432
21.03470,12956
21.04042,12977
21.04615,13328
21.05187,13266
21.05758,12377
21.06332,12786
21.06903,12578
21.07475,11809
21.08048,11498
21.08620,10843
21.09192,12512
21.09765,12737
21.10337,12549
21.10908,12841
21.11480,14362
21.12053,12347
21.12625,12270
21.13197,11857
21.13770,12768
21.14342,11655
21.14913,12399
21.15487,13848
21.16058,14029
21.16630,17681
21.17203,18030
21.17775,17534
21.18347,15179
21.18920,15217
21.19492,14642
21.20063,12426
21.20637,13560
21.21208,13487
21.21780,12546
21.22353,12218
21.22925,12634
21.23497,13418
21.24070,11686
21.24642,12961
21.25213,11440
21.25787,12622
21.26358,13348
21.26930,12778
21.27503,11321
21.28075,12891
21.28647,12533
21.29218,13673
21.29792,13663
21.30363,12041
21.30935,12901
21.31508,13741
21.32080,13173
21.32652,12552
21.33225,12563
21.33797,11754
21.34368,12003
21.34942,13998
21.35513,13293
21.36085,14667
21.36658,20245
21.37230,35793
21.37802,73132
21.38375,149137
21.38947,279625
21.39518,439133
21.40092,584532
21.40663,663064
21.41235,598304
21.41808,434397
21.42380,271952
21.42952,164645
21.43525,100371
21.44097,63260
21.44668,45254
21.45242,36073
21.45813,30939
21.46385,29140
21.46957,28474
21.47530,26001
21.48102,24451
21.48673,24060
21.49247,24493
21.49818,20037
21.50390,20595
21.50963,20127
21.51535,18493
21.52107,19493
21.52680,20113
21.53252,19704
21.53823,19547
21.54397,19363
21.54968,20391
21.55540,17776
21.56113,18533
21.56685,17322
21.57257,17770
21.57830,16644
21.58402,16805
21.58973,18336
21.59547,18954
21.60118,17060
21.60690,17891
21.61263,15969
21.61835,16871
21.62407,16639
21.62980,16753
21.63552,14535
21.64123,17170
21.64695,16165
21.65268,16930
21.65840,16652
21.66412,17318
21.66985,16016
21.67557,16401
21.68128,15691
21.68702,16829
21.69273,16192
21.69845,17832
21.70418,14912
21.70990,14636
21.71562,17053
21.72135,16148
21.72707,18115
21.73278,15333
21.73852,15752
21.74423,16256
21.74995,15078
21.75568,15474
21.76140,15281
21.76712,15404
21.77285,16590
21.77857,14263
21.78428,15491
21.79002,15663
21.79573,16001
21.80145,15806
21.80718,15012
21.81290,16911
21.81862,16026
21.82435,15041
21.83007,15258
21.83578,17007
21.84150,15728
21.84723,17612
21.85295,17019
21.85867,16477
21.86440,15285
21.87012,17232
21.87583,16864
21.88157,14522
21.88728,15868
21.89300,16698
21.89873,16429
21.90445,16032
21.91017,15839
21.91590,15214
21.92162,15105
21.92733,16135
21.93307,15767
21.93878,16494
21.94450,15576
21.95023,18305
21.95595,17087
21.96167,14354
21.96740,15558
21.97312,15870
21.97883,16519
21.98457,15999
21.99028,15723
21.99600,16234
22.00172,17731
22.00745,17169
22.01317,17768
22.01888,17521
22.02462,18546
22.03033,18598
22.03605,21867
22.04178,26062
22.04750,30111
22.05322,42496
22.05895,49427
22.06467,49788
22.07038,49523
22.07612,40294
22.08183,34571
22.08755,26227
22.09328,20588
22.09900,19352
22.10472,16553
22.11045,16526
22.11617,16644
22.12188,16857
22.12762,17318
22.13333,15427
22.13905,15305
22.14478,17192
22.15050,17770
22.15622,15719
22.16195,16736
22.16767,15705
22.17338,16879
22.17912,16445
22.18483,15270
22.19055,16658
22.19627,16160
22.20200,18425
22.20772,15490
22.21343,15478
22.21917,17405
22.22488,14072
22.23060,15906
22.23633,14902
22.24205,17723
22.24777,15725
22.25350,15381
22.25922,17733
22.26493,15429
22.27067,16506
22.27638,16478
22.28210,15661
22.28783,16915
22.29355,16591
22.29927,15645
22.30500,15490
22.31072,15236
22.31643,15213
22.32217,13855
22.32788,15310
22.33360,15048
22.33933,15484
22.34505,16644
22.35077,16516
22.35650,16348
22.36222,17546
22.36793,15533
22.37365,15975
22.37938,16005
22.38510,14705
22.39082,15214
22.39655,15612
22.40227,15382
22.40798,15764
22.41372,15269
22.41943,16365
22.42515,15983
22.43088,14085
22.43660,14801
22.44232,13429
22.44805,16163
22.45377,16690
22.45948,16045
22.46522,16031
22.47093,14581
22.47665,17669
22.48238,17539
22.48810,18517
22.49382,16125
22.49955,16682
22.50527,15766
22.51098,15558
22.51672,14605
22.52243,14634
22.52815,14376
22.53388,14152
22.53960,15279
22.54532,13737
22.55103,13663
22.55677,13360
22.56248,15516
22.56820,14676
22.57393,14060
22.57965,14331
22.58537,13797
22.59110,13762
22.59682,14964
22.60253,13257
22.60827,13670
22.61398,14010
22.61970,15441
22.62543,19409
22.63115,29055
22.63687,45363
22.64260,71498
22.64832,103785
22.65403,134506
22.65977,162116
22.66548,162134
22.67120,152132
22.67693,130651
22.68265,103448
22.68837,74573
22.69410,59312
22.69982,48178
22.70553,40459
22.71127,36539
22.71698,35460
22.72270,32642
22.72842,30895
22.73415,29458
22.73987,26717
22.74558,27823
22.75132,28450
22.75703,26508
22.76275,28521
22.76848,31834
22.77420,41022
22.77992,62151
22.78565,107836
22.79137,180733
22.79708,270908
22.80282,378322
22.80853,495945
22.81425,572734
22.81998,594115
22.82570,535116
22.83142,452363
22.83715,349188
22.84287,255173
22.84858,176638
22.85432,114825
22.86003,83342
22.86575,64037
22.87148,51911
22.87720,44604
22.88292,41249
22.88865,36212
22.89437,31294
22.90008,31946
22.90582,32141
22.91153,28741
22.91725,26504
22.92297,28134
22.92870,24372
22.93442,25920
22.94013,25930
22.94587,24155
22.95158,24431
22.95730,22141
22.96303,24251
22.96875,23657
22.97447,23999
22.98020,21327
22.98592,21615
22.99163,23875
22.99737,24013
23.00308,21524
23.00880,22727
23.01453,22461
23.02025,18792
23.02597,20801
23.03170,21429
23.03742,21175
23.04313,18208
23.04887,20133
23.05458,21185
23.06030,22114
23.06603,19113
23.07175,19141
23.07747,20240
23.08320,19650
23.08892,18660
23.09463,18509
23.10035,20174
23.10608,18418
23.11180,18465
23.11752,17561
23.12325,17895
23.12897,19471
23.13468,19520
23.14042,19998
23.14613,19585
23.15185,18566
23.15758,19629
23.16330,18832
23.16902,17639
23.17475,19507
23.18047,16675
23.18618,16860
23.19192,16970
23.19763,17708
23.20335,17754
23.20908,18386
23.21480,19812
23.22052,16657
23.22625,18269
23.23197,16842
23.23768,16217
23.24342,15658
23.24913,16841
23.25485,17087
23.26058,17693
23.26630,17890
23.27202,16690
23.27773,16312
23.28347,16780
23.28918,16393
23.29490,15885
23.30063,16876
23.30635,16328
23.31207,16351
23.31780,16991
23.32352,15877
23.32923,16216
23.33497,15596
23.34068,15436
23.34640,16418
23.35213,15974
23.35785,16222
23.36357,17649
23.36930,16006
23.37502,14257
23.38073,15895
23.38647,17764
23.39218,17342
23.39790,16720
23.40363,17152
23.40935,18136
23.41507,18624
23.42080,17168
23.42652,18638
23.43223,16998
23.43797,16120
23.44368,18601
23.44940,15527
23.45512,16158
23.46085,16111
23.46657,16259
23.47228,16334
23.47802,16067
23.48373,15957
23.48945,15746
23.49518,14797
23.50090,15366
23.50662,14600
23.51235,14155
23.51807,16379
23.52378,15136
23.52952,15504
23.53523,14793
23.54095,15634
23.54668,14806
23.55240,15283
23.55812,15621
23.56385,14534
23.56957,15284
23.57528,13859
23.58102,14713
23.58673,16250
23.59245,15410
23.59818,15337
23.60390,15372
23.60962,16395
23.61535,14119
23.62107,15279
23.62678,14839
23.63250,13747
23.63823,13753
23.64395,14154
23.64967,13435
23.65540,13456
23.66112,14802
23.66683,14221
23.67257,14039
23.67828,14807
23.68400,15507
23.68973,14870
23.69545,15569
23.70117,15263
23.70690,15308
23.71262,16290
23.71833,17061
23.72407,19344
23.72978,19408
23.73550,23081
23.74123,25750
23.74695,29713
23.75267,31892
23.75840,37055
23.76412,34350
23.76983,33585
23.77557,30393
23.78128,27345
23.78700,26211
23.79273,23626
23.79845,20241
23.80417,18718
23.80988,17010
23.81562,17211
23.82133,16147
23.82705,15909
23.83278,17333
23.83850,15419
23.84422,15878
23.84995,13451
23.85567,14918
23.86138,14191
23.86712,14661
23.87283,13732
23.87855,14708
23.88428,15136
23.89000,14901
23.89572,12501
23.90145,13346
23.90717,15056
23.91288,13759
23.91862,14815
23.92433,14636
23.93005,14437
23.93578,13442
23.94150,13952
23.94722,14241
23.95295,15236
23.95867,15128
23.96438,13682
23.97012,14916
23.97583,14229
23.98155,15045
23.98728,13405
23.99300,14124
23.99872,13656
24.00443,13807
24.01017,13908
24.01588,14336
24.02160,15496
24.02733,14389
24.03305,13963
24.03877,14095
24.04450,14901
24.05022,13394
24.05593,15343
24.06167,14080
24.06738,14923
24.07310,13896
24.07883,13639
24.08455,14824
24.09027,13373
24.09600,13657
24.10172,11949
24.10743,13654
24.11317,12745
24.11888,12768
24.12460,12722
24.13033,15447
24.13605,13120
24.14177,14411
24.14750,13525
24.15322,12868
24.15893,14489
24.16467,12290
24.17038,13729
24.17610,14259
24.18182,14146
24.18755,12244
24.19327,13798
24.19898,12757
24.20472,14715
24.21043,14345
24.21615,13208
24.22188,13036
24.22760,12591
24.23332,14227
24.23905,13689
24.24477,13608
24.25048,13294
24.25622,12090
24.26193,12900
24.26765,12360
24.27338,13464
24.27910,13125
24.28482,13558
24.29055,13346
24.29627,13021
24.30198,11578
24.30772,13700
24.31343,12970
24.31915,13892
24.32488,12921
24.33060,12608
24.33632,12663
24.34205,12839
24.34777,12542
24.35348,12934
24.35920,11982
24.36493,13347
24.37065,13236
24.37637,12471
24.38210,13758
24.38782,12995
24.39353,12952
24.39927,13319
24.40498,13084
24.41070,11739
24.41643,12590
24.42215,13174
24.42787,14676
24.43360,13217
24.43932,13648
24.44503,12857
24.45077,12396
24.45648,13937
24.46220,13108
24.46793,13626
24.47365,12949
24.47937,12968
24.48510,12009
24.49082,13496
24.49653,12954
24.50227,12822
24.50798,12318
24.51370,13169
24.51943,11991
24.52515,12533
24.53087,12842
24.53658,12909
24.54232,11626
24.54803,12331
24.55375,12622
24.55948,14170
24.56520,12412
24.57092,13336
24.57665,12703
24.58237,14175
24.58808,15655
24.59382,17699
24.59953,22450
24.60525,35800
24.61098,47069
24.61670,73920
24.62242,109900
24.62815,144822
24.63387,194942
24.63958,253169
24.64532,301024
24.65103,358998
24.65675,372726
24.66248,386071
24.66820,384166
24.67392,353895
24.67965,307562
24.68537,246672
24.69108,187038
24.69682,140404
24.70253,102760
24.70825,78806
24.71397,57417
24.71970,44207
24.72542,35382
24.73113,28920
24.73687,26816
24.74258,24112
24.74830,22900
24.75403,21283
24.75975,21319
24.76547,20800
24.77120,18381
24.77692,18275
24.78263,17286
24.78837,19614
24.79408,18647
24.79980,18684
24.80553,18816
24.81125,17524
24.81697,16155
24.82270,16796
24.82842,18290
24.83413,16190
24.83987,15958
24.84558,16270
24.85130,15082
24.85703,15593
24.86275,15223
24.86847,16045
24.87420,14412
24.87992,15105
24.88563,15245
24.89137,16134
24.89708,15140
24.90280,14443
24.90852,14829
24.91425,16340
24.91997,14283
24.92568,15946
24.93142,15860
24.93713,15019
24.94285,13440
24.94858,14444
24.95430,12586
24.96002,14545
24.96575,14916
24.97147,15640
24.97718,15769
24.98292,13327
24.98863,14365
24.99435,13157
25.00008,14312
25.00580,15741
25.01152,14622
25.01725,14101
25.02297,12600
25.02868,14870
25.03442,13246
25.04013,13328
25.04585,13241
25.05158,13929
25.05730,12597
25.06302,13186
25.06875,15169
25.07447,14319
25.08018,13542
25.08590,14121
25.09163,13577
25.09735,13548
25.10307,13397
25.10880,13346
25.11452,13870
25.12023,13433
25.12597,12936
25.13168,12880
25.13740,12932
25.14313,14336
25.14885,14046
25.15457,14463
25.16030,15745
25.16602,14726
25.17173,13287
25.17747,14642
25.18318,11437
25.18890,13351
25.19463,12705
25.20035,14271
25.20607,14073
25.21180,12882
25.21752,12222
25.22323,11978
25.22897,11612
25.23468,13662
25.24040,12715
25.24613,13156
25.25185,14256
25.25757,13163
25.26328,13956
25.26902,13065
25.27473,14087
25.28045,14219
25.28618,12072
25.29190,12305
25.29762,12153
25.30335,12350
25.30907,11692
25.31478,12151
25.32052,12263
25.32623,12460
25.33195,13117
25.33768,13391
25.34340,12734
25.34912,13142
25.35485,13603
25.36057,13163
25.36628,13764
25.37202,14615
25.37773,12258
25.38345,13371
25.38918,12346
25.39490,14453
25.40062,12372
25.40635,11665
25.41207,12535
25.41778,12553
25.42352,14169
25.42923,13314
25.43495,12745
25.44067,12775
25.44640,13760
25.45212,12338
25.45783,12336
25.46357,13101
25.46928,12944
25.47500,14070
25.48073,13629
25.48645,14630
25.49217,14215
25.49790,13305
25.50362,13218
25.50933,14782
25.51507,14317
25.52078,13565
25.52650,11928
25.53223,11715
25.53795,12397
25.54367,12891
25.54940,12214
25.55512,11889
25.56083,12200
25.56657,12871
25.57228,11982
25.57800,13367
25.58373,12141
25.58945,11892
25.59517,11828
25.60090,12120
25.60662,12409
25.61233,11688
25.61805,12751
25.62378,13635
25.62950,13672
25.63522,11986
25.64095,11945
25.64667,11367
25.65238,12882
25.65812,12423
25.66383,12554
25.66955,12797
25.67528,11649
25.68100,11200
25.68672,11976
25.69245,13663
25.69817,13870
25.70388,10850
25.70962,12103
25.71533,11329
25.72105,11949
25.72678,12178
25.73250,13352
25.73822,13112
25.74395,11982
25.74967,12557
25.75538,11697
25.76112,11205
25.76683,12958
25.77255,12313
25.77828,12713
25.78400,12665
25.78972,12526
25.79543,11684
25.80117,11957
25.80688,11347
25.81260,10931
25.81833,10749
25.82405,11379
25.82977,11897
25.83550,11559
25.84122,11382
25.84693,11668
25.85267,11750
25.85838,11012
25.86410,11276
25.86983,11379
25.87555,12507
25.88127,11200
25.88700,12931
25.89272,11793
25.89843,12562
25.90417,11599
25.90988,12463
25.91560,10462
25.92133,12413
25.92705,12052
25.93277,12149
25.93850,11969
25.94422,11873
25.94993,11855
25.95567,9705
25.96138,11991
25.96710,11663
25.97283,11183
25.97855,12807
25.98427,11780
25.98998,11876
25.99572,11325
26.00143,11709
26.00715,12561
26.01288,12356
26.01860,12821
26.02432,11252
26.03005,11231
26.03577,12558
26.04148,11541
26.04722,13540
26.05293,14444
26.05865,16082
26.06438,13713
26.07010,13054
26.07582,15909
26.08155,17293
26.08727,19812
26.09298,18123
26.09872,19302
26.10443,20431
26.11015,20512
26.11588,19489
26.12160,20994
26.12732,17752
26.13305,16969
26.13877,17137
26.14448,16383
26.15022,15235
26.15593,13323
26.16165,13585
26.16737,12298
26.17310,13594
26.17882,12232
26.18453,12022
26.19027,15097
26.19598,12026
26.20170,13745
26.20743,15987
26.21315,22156
26.21887,26887
26.22460,31813
26.23032,42447
26.23603,56037
26.24177,70861
26.24748,86614
26.25320,97825
26.25893,115315
26.26465,123191
26.27037,121227
26.27610,117506
26.28182,113843
26.28753,97281
26.29327,84829
26.29898,74893
26.30470,61254
26.31043,55559
26.31615,48112
26.32187,37764
26.32760,34301
26.33332,30009
26.33903,28822
26.34475,25393
26.35048,25072
26.35620,23930
26.36192,22449
26.36765,23380
26.37337,21343
26.37908,20755
26.38482,20490
26.39053,20900
26.39625,20724
26.40198,18286
26.40770,17908
26.41342,19657
26.41915,17762
26.42487,19891
26.43058,19467
26.43632,18586
26.44203,17695
26.44775,19469
26.45348,18178
26.45920,16710
26.46492,18002
26.47065,17941
26.47637,18807
26.48208,18189
26.48782,17723
26.49353,17208
26.49925,16658
26.50498,16491
26.51070,16692
26.51642,15211
26.52213,16842
26.52787,14869
26.53358,14854
26.53930,18073
26.54503,16104
26.55075,16300
26.55647,16072
26.56220,16134
26.56792,15694
26.57363,14911
26.57937,14599
26.58508,15404
26.59080,15233
26.59653,14368
26.60225,14850
26.60797,15129
26.61370,14014
26.61942,14295
26.62513,15587
26.63087,14148
26.63658,15514
26.64230,15770
26.64803,15251
26.65375,15008
26.65947,14764
26.66520,14546
26.67092,15942
26.67663,14054
26.68237,15681
26.68808,14591
26.69380,15003
26.69953,17173
26.70525,16060
26.71097,15076
26.71668,13160
26.72242,13610
26.72813,15551
26.73385,14170
26.73958,13452
26.74530,15125
26.75102,14369
26.75675,15146
26.76247,15116
26.76818,14260
26.77392,14952
26.77963,14045
26.78535,14418
26.79108,14558
26.79680,12642
26.80252,13545
26.80825,13672
26.81397,13444
26.81968,13472
26.82542,12570
26.83113,11839
26.83685,14151
26.84258,13948
26.84830,15179
26.85402,14417
26.85975,12998
26.86547,13724
26.87118,13879
26.87690,13240
26.88263,12298
26.88835,14315
26.89407,12323
26.89980,13558
26.90552,14497
26.91123,11907
26.91697,12832
26.92268,12645
26.92840,12956
26.93413,13614
26.93985,13127
26.94557,12962
26.95130,12890
26.95702,13807
26.96273,13155
26.96847,11917
26.97418,13626
26.97990,12962
26.98563,14398
26.99135,13379
26.99707,13552
27.00280,13569
27.00852,13648
27.01423,13693
27.01997,13117
27.02568,11091
27.03140,13438
27.03713,14003
27.04285,14098
27.04857,14313
27.05430,16081
27.06002,17672
27.06573,20165
27.07145,21456
27.07718,30993
27.08290,36375
27.08862,47978
27.09435,63652
27.10007,75692
27.10578,95892
27.11152,121927
27.11723,135183
27.12295,159692
27.12868,184451
27.13440,203373
27.14012,223578
27.14585,231919
27.15157,244625
27.15728,252283
27.16302,254874
27.16873,236135
27.17445,214015
27.18018,197217
27.18590,185000
27.19162,150664
27.19735,128164
27.20307,102513
27.20878,84205
27.21452,67613
27.22023,56130
27.22595,43799
27.23168,36553
27.23740,32211
27.24312,28021
27.24883,24096
27.25457,21073
27.26028,19820
27.26600,20626
27.27173,20642
27.27745,18834
27.28317,17705
27.28890,18701
27.29462,17719
27.30033,18699
27.30607,16310
27.31178,16446
27.31750,15671
27.32323,17402
27.32895,15593
27.33467,16474
27.34040,14834
27.34612,15641
27.35183,15511
27.35757,15018
27.36328,16353
27.36900,15140
27.37473,14861
27.38045,13285
27.38617,16890
27.39190,14474
27.39762,14385
27.40333,15105
27.40907,14877
27.41478,13270
27.42050,13709
27.42622,14491
27.43195,14704
27.43767,13797
27.44338,14955
27.44912,15321
27.45483,15228
27.46055,13843
27.46628,14115
27.47200,15430
27.47772,13930
27.48345,13923
27.48917,15534
27.49488,15614
27.50062,15057
27.50633,14705
27.51205,14512
27.51778,14214
27.52350,13614
27.52922,13182
27.53495,13328
27.54067,13288
27.54638,12861
27.55212,15393
27.55783,13183
27.56355,12369
27.56928,14390
27.57500,13225
27.58072,12368
27.58645,13815
27.59217,13274
27.59788,13272
27.60360,13663
27.60933,13058
27.61505,13455
27.62077,13451
27.62650,13451
27.63222,13643
27.63793,11853
27.64367,14606
27.64938,13412
27.65510,14202
27.66083,13005
27.66655,12299
27.67227,13183
27.67800,14775
27.68372,12361
27.68943,12401
27.69517,13637
27.70088,12555
27.70660,13403
27.71233,12659
27.71805,11585
27.72377,11879
27.72950,13174
27.73522,13321
27.74093,14314
27.74667,13197
27.75238,12738
27.75810,12051
27.76383,13186
27.76955,12336
27.77527,14370
27.78100,13140
27.78672,13071
27.79243,12514
27.79815,13359
27.80388,13010
27.80960,12447
27.81532,13877
27.82105,11746
27.82677,12605
27.83248,14762
27.83822,13000
27.84393,12820
27.84965,13528
27.85538,11833
27.86110,12353
27.86682,12826
27.87255,12210
27.87827,11458
27.88398,10997
27.88972,12230
27.89543,12832
27.90115,13195
27.90688,11141
27.91260,12553
27.91832,14117
27.92405,14032
27.92977,12691
27.93548,11789
27.94122,10855
27.94693,12303
27.95265,11190
27.95838,11922
27.96410,12118
27.96982,11667
27.97553,11995
27.98127,11413
27.98698,11884
27.99270,11589
27.99843,11857
28.00415,11324
28.00987,11877
28.01560,11378
28.02132,13390
28.02703,10700
28.03277,12244
28.03848,11943
28.04420,12143
28.04993,12521
28.05565,12442
28.06137,11968
28.06710,11464
28.07282,12810
28.07853,11966
28.08427,12981
28.08998,11312
28.09570,12961
28.10143,13977
28.10715,12357
28.11287,10549
28.11860,10329
28.12432,11807
28.13003,13803
28.13577,11562
28.14148,11270
28.14720,11939
28.15292,13030
28.15865,11087
28.16437,12710
28.17008,11525
28.17582,12584
28.18153,12379
28.18725,12415
28.19298,12396
28.19870,11204
28.20442,12847
28.21015,13019
28.21587,12319
28.22158,12164
28.22732,11481
28.23303,12762
28.23875,11659
28.24448,12545
28.25020,11505
28.25592,11444
28.26165,13311
28.26737,11287
28.27308,13673
28.27882,12774
28.28453,11743
28.29025,12457
28.29598,12397
28.30170,12817
28.30742,13077
28.31315,11486
28.31887,12955
28.32458,12831
28.33030,12252
28.33603,13150
28.34175,13313
28.34747,12909
28.35320,12416
28.35892,12083
28.36463,10473
28.37037,11585
28.37608,11371
28.38180,12551
28.38753,11837
28.39325,11476
28.39897,11221
28.40470,10567
28.41042,13259
28.41613,12474
28.42187,12471
28.42758,12876
28.43330,12268
28.43903,11465
28.44475,11362
28.45047,11445
28.45620,11233
28.46192,12412
28.46763,10726
28.47337,12495
28.47908,11564
28.48480,11028
28.49053,10550
28.49625,11023
28.50197,11055
28.50768,12040
28.51342,10611
28.51913,10989
28.52485,11202
28.53058,10864
28.53630,11277
28.54202,12660
28.54775,10073
28.55347,10699
28.55918,11568
28.56492,12029
28.57063,12095
28.57635,10801
28.58208,11177
28.58780,10114
28.59352,12379
28.59925,10243
28.60497,10853
28.61068,12059
28.61642,11987
28.62213,10898
28.62785,12049
28.63358,10849
28.63930,10353
28.64502,10296
28.65075,11270
28.65647,9923
28.66218,12233
28.66792,11697
28.67363,10181
28.67935,11249
28.68508,11409
28.69080,10450
28.69652,10535
28.70223,11089
28.70797,9558
28.71368,9098
28.71940,12229
28.72513,11289
28.73085,11012
28.73657,11450
28.74230,11743
28.74802,11368
28.75373,9940
28.75947,11050
28.76518,10884
28.77090,11388
28.77663,10082
28.78235,11779
28.78807,11425
28.79380,10872
28.79952,10963
28.80523,11043
28.81097,10562
28.81668,11130
28.82240,11900
28.82813,11133
28.83385,11606
28.83957,10178
28.84530,11497
28.85102,11539
28.85673,11264
28.86247,9883
28.86818,11516
28.87390,10468
28.87962,10995
28.88535,10919
28.89107,11814
28.89678,11047
28.90252,10216
28.90823,10620
28.91395,10517
28.91968,9848
28.92540,12139
28.93112,11417
28.93685,11501
28.94257,11203
28.94828,11135
28.95402,11540
28.95973,12339
28.96545,9446
28.97118,11917
28.97690,10341
28.98262,10782
28.98835,9551
28.99407,10893
28.99978,12216
29.00552,10678
29.01123,10017
29.01695,12005
29.02268,10390
29.02840,11967
29.03412,10876
29.03985,11436
29.04557,11090
29.05128,9851
29.05700,10569
29.06273,11160
29.06845,10032
29.07417,10451
29.07990,11961
29.08562,10642
29.09133,11339
29.09707,10267
29.10278,10664
29.10850,10850
29.11423,10863
29.11995,10895
29.12567,12021
29.13140,10652
29.13712,11045
29.14283,10899
29.14857,11599
29.15428,11718
29.16000,9975
29.16573,12055
29.17145,10863
29.17717,9939
29.18290,10314
29.18862,10492
29.19433,10913
29.20007,10566
29.20578,12354
29.21150,11003
29.21723,10943
29.22295,10876
29.22867,11431
29.23438,10342
29.24012,10000
29.24583,11654
29.25155,10873
29.25728,10729
29.26300,10844
29.26872,10171
29.27445,11074
29.28017,10866
29.28588,11648
29.29162,11963
29.29733,10970
29.30305,10912
29.30878,10034
29.31450,10931
29.32022,10430
29.32595,9938
29.33167,10885
29.33738,9968
29.34312,11211
29.34883,10209
29.35455,12048
29.36028,11055
29.36600,11583
29.37172,11098
29.37745,10437
29.38317,13082
29.38888,11829
29.39462,11440
29.40033,12304
29.40605,11847
29.41177,13034
29.41750,11713
29.42322,11618
29.42893,12210
29.43467,12427
29.44038,11800
29.44610,13516
29.45183,13327
29.45755,13083
29.46327,12190
29.46900,13484
29.47472,12235
29.48043,14735
29.48617,13342
29.49188,11235
29.49760,12229
29.50333,12515
29.50905,12703
29.51477,11156
29.52050,11629
29.52622,12191
29.53193,10451
29.53767,11028
29.54338,10731
29.54910,12469
29.55483,10901
29.56055,10918
29.56627,10400
29.57200,11901
29.57772,10189
29.58343,11222
29.58915,10419
29.59488,11742
29.60060,11566
29.60632,12081
29.61205,10243
29.61777,11931
29.62348,9954
29.62922,10755
29.63493,9514
29.64065,9341
29.64638,11768
29.65210,10196
29.65782,11109
29.66355,10733
29.66927,10049
29.67498,11047
29.68072,10098
29.68643,9771
29.69215,10986
29.69788,10412
29.70360,10552
29.70932,10421
29.71505,11238
29.72077,9913
29.72648,10190
29.73222,10996
29.73793,9751
29.74365,10758
29.74938,10095
29.75510,10941
29.76082,10000
29.76655,9577
29.77227,10938
29.77798,10275
29.78370,11184
29.78943,9094
29.79515,10513
29.80087,10177
29.80660,9995
29.81232,9926
29.81803,10108
29.82377,10659
29.82948,10205
29.83520,10406
29.84093,11171
29.84665,10779
29.85237,10802
29.85810,10647
29.86382,10833
29.86953,10978
29.87527,10408
29.88098,10458
29.88670,11419
29.89243,11436
29.89815,10409
29.90387,9603
29.90960,9221
29.91532,10140
29.92103,10143
29.92677,11437
29.93248,10465
29.93820,10773
29.94393,9212
29.94965,9225
29.95537,10308
29.96108,11444
29.96682,9581
29.97253,10680
29.97825,11176
29.98398,10307
29.98970,10644
